time	whole_blood_radioactivity	plasma_radioactivity	metabolite_parent_fraction	AIF
0	0	0	1	0
1.2029004834139023	28.159157061283395	36.354965181869744	0.9980706975182121	34.95555316697123
2.4058009668278046	56.31831412256679	72.70993036373949	0.9961413950364242	69.91110633394246
3.608701450241707	84.47747118385018	109.06489554560923	0.9942120925546363	104.86665950091367
4.811601933655609	112.63662824513358	145.41986072747898	0.9922827900728484	139.8222126678849
6.014502417069512	140.79578530641697	181.77482590934875	0.9903534875910603	174.77776583485613
7.217402900483414	168.95494236770037	218.12979109121846	0.9884241851092724	209.73331900182734
8.420303383897316	197.11409942898376	254.4847562730882	0.9864948826274845	244.68887216879858
9.623203867311219	225.27325649026716	290.83972145495795	0.9845655801456966	279.6444253357698
10.826104350725121	253.43241355155055	327.1946866368277	0.9826362776639087	314.599978502741
12.029004834139023	281.59157061283395	363.5496518186975	0.9807069751821208	349.55553166971225
13.231905317552926	309.75072767411734	399.90461700056716	0.9787776727003329	384.5110848366835
14.434805800966828	337.90988473540074	436.25958218243693	0.976848370218545	419.4666380036547
15.63770628438073	366.06904179668413	472.61454736430676	0.974919067736757	454.4221911706259
16.840606767794633	394.2281988579675	508.9695125461764	0.972989765254969	489.37774433759716
18.043507251208535	422.3873559192509	545.3244777280462	0.9710604627731811	524.3332975045683
19.246407734622437	450.5465129805343	581.6794429099159	0.9691311602913932	559.2888506715396
20.44930821803634	478.7056700418177	618.0344080917856	0.9672018578096053	594.2444038385108
21.652208701450242	506.8648271031011	654.3893732736555	0.9652725553278174	629.199957005482
22.855109184864144	535.0239841643845	690.744338455525	0.9633432528460295	664.1555101724533
24.058009668278046	1255.4214170425664	1621.3573580357797	0.9615069906435662	1595.919145524829
25.26091015169195	15637.976683155273	20337.15578796855	0.9615069906435662	20227.27263738808
26.46381063510585	30020.531949267977	39316.02768254579	0.9615069906435662	38858.62612925134
27.666711118519753	44403.08721538067	58563.55903024471	0.9615069906435662	57489.97962111459
28.869611601933656	58785.642481493385	78085.4950941586	0.9615069906435662	76121.33311297784
30.072512085347558	73168.19774760609	97887.74612954693	0.9615069906435662	94752.68660484109
31.27541256876146	86677.54353291313	116744.3151473517	0.9615176144931438	112251.55469101234
32.478313052175366	87131.5969082439	117316.06522617779	0.9616870747568973	112818.71458306453
33.681213535589265	87585.65028357464	117887.42757527455	0.9618565350206507	113385.87447511674
34.884114019003164	88039.70365890538	118458.40258891403	0.9620259952844042	113953.03436716892
36.08701450241707	88493.75703423613	119028.99066083394	0.9621954555481578	114520.19425922113
37.289914985830976	88947.81040956688	119599.19218423848	0.9623649158119112	115087.35415127334
38.492815469244874	89401.86378489762	120169.00755179921	0.9625343760756647	115654.51404332551
39.69571595265877	89855.917160228375	120738.43715565608	0.9627038363394183	116221.67393537771
40.89861643607268	90309.97053555911	121307.4813874183	0.9628732966031718	116788.83382742992
42.101516919486585	90764.02391088988	121876.14063816515	0.9630427568669252	117355.99371948211
43.304417402900484	91218.07728622062	122444.41529844684	0.9632122171306787	117923.1536115343
44.50731788631438	91672.13066155136	123012.30575828567	0.9633816773944323	118490.31350358651
45.71021836972829	92126.18403688211	123579.81240717662	0.9635511376581857	119057.47339563869
46.913118853142194	92580.23741221285	124146.93563408844	0.9637205979219392	119624.6332876909
48.11601933655609	93034.29078754359	124713.67582746437	0.9638900581856927	120191.7931797431
49.31891981996999	93488.34416287436	125280.03337522324	0.9640595184494462	120758.95307179529
50.5218203033839	93942.3975382051	125846.00866476011	0.9642289787131997	121326.11296384748
51.7247207867978	94396.45091353584	126411.60208294736	0.9643984389769532	121893.27285589968
52.9276212702117	94850.5042888666	126976.81401613548	0.9645678992407066	122460.43274795188
54.1305217536256	95304.55766419735	127541.64485015391	0.9647373595044602	123027.59264000408
55.33342223703951	95758.61103952808	128106.09497031206	0.9649068197682137	123594.75253205627
56.53632272045341	96212.66441485884	128670.16476139997	0.9650762800319671	124161.91242410846
57.73922320386731	96666.71779018958	129233.85460768944	0.9652457402957206	124729.07231616067
58.94212368728121	97120.77116552033	129797.16489293466	0.9654152005594742	125296.23220821285
60.145024170695116	97574.82454085108	130360.09600037329	0.9655846608232276	125863.39210026506
61.34792465410902	98028.87791618182	130922.64831272712	0.9657541210869811	126430.55199231725
62.55082513752292	98482.93129151258	131484.82221220314	0.9659235813507346	126997.71188436945
63.75372562093682	98936.98466684332	132046.61808049426	0.9660930416144881	127564.87177642164
64.95662610435073	99391.03804217407	132608.03629878032	0.9662625018782416	128132.03166847385
66.15952658776463	99864.26925310031	133237.5228135526	0.9664639971345677	128773.66703485376
67.36242707117853	100462.93192542606	134317.065449122	0.9668750153015625	129902.40468849808
68.56532755459243	101061.5945977518	135401.14101426443	0.9672860334685572	131031.1423421424
69.76822803800633	101660.25727007753	136489.7781192626	0.9676970516355521	132159.87999578673
70.97112852142024	102258.9199424033	137583.00561567786	0.9681080698025469	133288.61764943105
72.17402900483414	102857.58261472902	138680.8525988986	0.9685190879695418	134417.35530307537
73.37692948824804	103456.24528705477	139783.3484107223	0.9689301061365366	135546.0929567197
74.57982997166195	104054.90795938052	140890.52264196886	0.9693411243035315	136674.83061036404
75.78273045507585	104653.57063170626	142002.40513512818	0.9697521424705263	137803.56826400835
76.98563093848975	105252.23330403201	143119.02598704182	0.9701631606375211	138932.30591765267
78.18853142190365	105850.89597635774	144240.41555161812	0.9705741788045159	140061.04357129696
79.39143190531755	106449.5586486835	145366.60444258308	0.9709851969715108	141189.78122494134
80.59433238873146	107048.22132100923	146497.62353626595	0.9713962151385056	142318.51887858566
81.79723287214536	107934.66111578193	147700.60420801435	0.9721931377686032	143592.10906074452
83.00013335555926	108967.53473424606	148936.09448035853	0.9731864257860228	144939.40666426273
84.20303383897317	110000.40835271022	150168.6399244006	0.9741797138034424	146286.70426778094
85.40593432238707	111033.28197117438	151398.25105623828	0.975173001820862	147634.00187129914
86.60883480580097	112066.15558963853	152624.93834195778	0.9761662898382816	148981.29947481732
87.81173528921487	113099.02920810267	153848.71219793046	0.9771595778557012	150328.59707833553
89.01463577262876	114131.90282656683	155069.5829911079	0.9781528658731208	151675.8946818537
90.21753625604268	115164.77644503098	156287.5610393145	0.9791461538905405	153023.19228537194
91.42043673945658	116197.65006349514	157502.6566115381	0.9801394419079601	154370.48988889012
92.62333722287048	117230.52368195928	158714.8799282188	0.9811327299253797	155717.78749240833
93.82623770628439	118263.39730042344	159924.2411615353	0.9821260179427993	157065.08509592654
95.02913818969829	118862.0111286892	160704.67656501872	0.9818997051795701	157793.63442190445
96.23203867311219	119264.8675581647	161292.8703156732	0.9811236158038821	158243.2618765713
97.43493915652608	119667.72398764019	161881.38165673867	0.980347526428194	158692.88933123823
98.63783963993998	120070.58041711568	162470.21084550506	0.9795714370525059	159142.51678590514
99.8407401233539	120473.43684659118	163059.35813954036	0.9787953476768179	159592.14424057206
101.0436406067678	120876.29327606667	163648.82379669097	0.9780192583011298	160041.77169523897
102.2465410901817	121279.14970554216	164238.60807508192	0.9772431689254417	160491.39914990586
103.4494415735956	121682.00613501765	164828.7112331174	0.9764670795497536	160941.02660457278
104.6523420570095	122084.86256449315	165419.1335294812	0.9756909901740656	161390.6540592397
105.8552425404234	122487.71899396864	166009.87522313689	0.9749149007983775	161840.2815139066
107.0581430238373	122890.57542344413	166600.93657332822	0.9741388114226894	162289.90896857352
108.2610435072512	123288.5037320134	167230.58652066073	0.9733627220470015	162777.46125717956
109.46394399066511	123668.65115377273	167999.84983209355	0.9725866326713133	163401.84809030872
110.66684447407901	124048.79857553204	168771.44285128565	0.9718105432956253	164026.23492343785
111.86974495749291	124428.94599729136	169545.37617753877	0.9710344539199373	164650.62175656695
113.07264544090683	124809.0934190507	170321.6604745496	0.9702583645442492	165275.00858969608
114.27554592432072	125189.24084081002	171100.3064708993	0.9694822751685611	165899.39542282518
115.47844640773462	125569.38826256935	171881.32496054794	0.968706185792873	166523.78225595434
116.68134689114852	125949.53568432867	172664.72680333324	0.967930096417185	167148.16908908344
117.88424737456242	126329.68310608798	173450.52292547372	0.9671540070414969	167772.55592221257
119.08714785797633	126709.83052784731	174238.72432007716	0.9663779176658088	168396.9427553417
120.29004834139023	127089.97794960663	175029.3420476525	0.9656018282901208	169021.3295884708
121.49294882480413	127470.12537136595	175822.38723662795	0.9648257389144327	169645.71642159997
122.69584930821804	127850.27279312529	176617.87108387265	0.9640496495387446	170270.10325472907
123.89874979163194	126013.42086886922	173835.36382906156	0.9626263200278983	167461.91788076205
125.10165027504584	123426.3024176565	169858.22046880634	0.9609839545443148	163492.09750993561
126.30455075845974	120839.18396644376	165900.10202730296	0.9593415890607314	159522.27713910915
127.50745124187364	118252.06551523102	161960.8723199082	0.957699223577148	155552.4567682827
128.71035172528755	115664.94706401827	158040.39645867184	0.9560568580935644	151582.6363974562
129.91325220870146	113077.8286128055	154138.5408369403	0.954414492609981	147612.81602662968
131.11615269211535	110490.7101615928	150255.17311417867	0.9527721271263976	143642.99565580327
132.31905317552926	107903.59171038005	146390.16220100826	0.9511297616428142	139673.17528497675
133.52195365894315	105316.47325916734	142543.37824445608	0.9494873961592307	135703.35491415038
134.72485414235706	102729.35480795457	138714.69261341184	0.9478450306756472	131733.53454332385
135.92775462577097	100142.23635674182	134903.9778842906	0.9462026651920638	127763.71417249736
137.13065510918486	97237.62796344367	130751.33352969626	0.9454045664912056	123596.3415651437
138.33355559259877	93495.50299878206	125659.1870579546	0.9468335853378814	118907.83978212318
139.53645607601266	89753.37803412053	120571.92052350876	0.9482626041845572	114219.33799910276
140.73935655942657	86011.25306945892	115489.5269148606	0.949691623031233	109530.83621608223
141.94225704284048	82269.1281047973	110411.99923393811	0.9511206418779088	104842.33443306171
143.14515752625437	78527.00314013577	105339.3304960629	0.9525496607245845	100153.83265004131
144.34805800966828	74784.87817547418	100271.5137299178	0.9539786795712603	95465.33086702078
145.5509584930822	71042.75321081255	95208.5419775156	0.955407698417936	90776.82908400026
146.75385897649608	67300.62824615104	90150.40829416706	0.9568367172646118	86088.32730097984
147.95675945991	63558.503281489415	85097.10574844843	0.9582657361112876	81399.82551795933
149.1596599433239	59816.3783168278	80048.62742217089	0.9596947549579634	76711.32373493881
150.3625604267378	56074.25335216628	75004.96641034837	0.9611237738046392	72022.82195191839
151.5654609101517	52332.128387504665	69966.11582116577	0.962552792651315	67334.32016889787
152.76836139356558	51042.48379728202	68221.0789710715	0.962016263267344	65652.48611804881
153.9712618769795	50346.834918488756	67273.56616826364	0.9610036741229033	64698.87307855502
155.1741623603934	49651.18603969548	66326.55281705124	0.9599910849784627	63745.26003906125
156.3770628438073	48955.53716090223	65380.038522633084	0.9589784958340223	62791.6469995675
157.5799633272212	48259.888282108965	64434.02289062382	0.9579659066895817	61838.03396007372
158.7828638106351	47564.23940331572	63488.50552705372	0.9569533175451411	60884.42092057996
159.985764294049	46868.59052452245	62543.486038367766	0.9559407284007005	59930.80788108619
161.18866477746292	46172.94164572918	61598.96403142545	0.95492813925626	58977.19484159241
162.3915652608768	45477.292766935934	60654.93911350002	0.9539155501118194	58023.581802098655
163.59446574429072	44781.64388814266	59711.41089227795	0.9529029609673788	57069.96876260488
164.79736622770463	44085.9950093494	58768.378975858475	0.9518903718229382	56116.3557231111
166.0002667111185	43390.346130556136	57825.84297275302	0.9508777826784977	55162.74268361735
167.20316719453243	42694.697251762875	56883.8024918846	0.9498651935340571	54209.12964412357
168.40606767794634	41999.04837296961	55942.25714258737	0.9488526043896165	53255.516604629796
169.60896816136022	41303.39949417636	55001.20653460604	0.9478400152451759	52301.90356513604
170.81186864477414	40607.75061538309	54060.65027809527	0.9468274261007353	51348.29052564226
172.01476912818802	39912.10173658984	53120.58798361933	0.9458148369562948	50394.67748614851
173.21766961160193	39216.45285779657	52181.019262151276	0.9448022478118542	49441.06444665473
174.42057009501585	38520.80397900331	51241.94372507266	0.9437896586674136	48487.451407160945
175.62347057842973	37825.15510021005	50303.36098417294	0.942777069522973	47533.8383676672
176.82637106184364	37129.50622141679	49365.27065164879	0.9417644803785324	46580.22532817342
178.02927154525753	36433.85734262353	48427.672340103774	0.9407518912340919	45626.612288679666
179.23217202867144	35738.20846383027	47490.56566254769	0.9397393020896513	44672.999249185894
180.43507251208536	35042.559585037	46553.95023239606	0.9387267129452107	43719.38620969211
181.63797299549924	34413.7762807784	45683.093242739335	0.9391152831107078	42897.56764316486
182.84087347891315	33901.774870568894	44928.110771879044	0.9419510024889026	42305.93042608902
184.04377396232707	33389.77346035938	44175.65117734088	0.9447867218670973	41714.29320901319
185.24667444574095	32877.77205014988	43425.70183441839	0.947622441245292	41122.655991937354
186.44957492915486	32365.770639940372	42678.25020249834	0.9504581606234869	40531.01877486152
187.65247541256878	31853.769229730857	41933.28382436185	0.9532938800016816	39939.38155778569
188.85537589598266	31341.76781952136	41190.79032549232	0.9561295993798763	39347.74434070986
190.05827637939657	30829.766409311847	40450.75741339019	0.9589653187580711	38756.10712363402
191.26117686281046	30317.76499910235	39713.172876894605	0.9618010381362658	38164.469906558195
192.46407734622437	29805.763588892838	38978.024585511725	0.9646367575144607	37572.83268948236
193.66697782963828	29293.762178683326	38245.30048874979	0.9674724768926554	36981.19547240652
194.86987831305217	28781.760768473832	37514.988615460614	0.9703081962708501	36389.558255330696
196.07277879646608	28269.759358264317	36787.0770731876	0.9731439156490449	35797.921038254855
197.27567927987997	28067.049214546605	36507.602458160894	0.9733067692148996	35540.181565941406
198.47857976329388	27900.91912577798	36281.131101651525	0.9731535014127117	35321.93237083275
199.6814802467078	27734.789037009352	36054.78927332374	0.9730002336105239	35103.683175724094
200.88438073012168	27568.658948240736	35828.57686208566	0.9728469658083361	34885.433980615446
202.0872812135356	27402.52885947211	35602.493756972384	0.9726936980061484	34667.18478550679
203.2901816969495	27236.398770703483	35376.539847145876	0.9725404302039605	34448.93559039813
204.4930821803634	27070.268681934867	35150.71502189471	0.9723871624017727	34230.68639528948
205.6959826637773	26904.13859316624	34925.01917063391	0.9722338945995849	34012.43720018083
206.8988831471912	26738.008504397614	34699.45218290482	0.9720806267973972	33794.188005072174
208.1017836306051	26571.878415628995	34474.01394837484	0.9719273589952093	33575.938809963525
209.304684114019	26405.748326860372	34248.70435683732	0.9717740911930215	33357.68961485487
210.5075845974329	26239.618238091753	34023.52329821133	0.9716208233908337	33139.44041974621
211.7104850808468	26073.488149323126	33798.47066254152	0.971467555588646	32921.19122463756
212.91338556426072	25907.358060554503	33573.5463399979	0.9713142877864581	32702.942029528906
214.1162860476746	25741.227971785884	33348.75022087569	0.9711610199842703	32484.692834420257
215.31918653108852	25575.097883017257	33124.08219559514	0.9710077521820825	32266.443639311605
216.5220870145024	25408.967794248638	32899.54215470136	0.9708544843798947	32048.19444420295
217.72498749791632	25242.837705480015	32675.129988864093	0.9707012165777069	31829.945249094297
218.92788798133023	25076.70761671139	32450.845588877582	0.9705479487755191	31611.69605398564
220.13078846474411	24910.577527942765	32226.688845660432	0.9703946809733313	31393.446858876992
221.33368894815803	24744.447439174146	32002.65965025532	0.9702414131711435	31175.197663768336
222.53658943157194	24578.31735040552	31778.75789382892	0.9700881453689557	30956.94846865968
223.73948991498582	24412.187261636896	31554.98346767167	0.9699348775667679	30738.699273551032
224.94239039839974	24246.057172868277	31331.336263197652	0.96978160976458	30520.450078442376
226.14529088181365	24079.92708409965	31107.816171944334	0.9696283419623923	30302.20088333372
227.34819136522754	23913.79699533103	30884.423085572478	0.9694750741602045	30083.951688225072
228.55109184864145	23747.66690656241	30661.15689586592	0.9693218063580167	29865.702493116416
229.75399233205533	23581.536817793785	30438.017494731383	0.969168538555829	29647.453298007764
230.95689281546925	23415.406729025162	30215.004774198347	0.9690152707536411	29429.20410289911
232.15979329888316	23249.276640256536	29992.118626418844	0.9688620029514533	29210.954907790456
233.36269378229704	23083.146551487916	29769.358943667303	0.9687087351492655	28992.705712681804
234.56559426571096	22917.016462719293	29546.72561834033	0.9685554673470778	28774.456517573148
235.76849474912484	22750.88637395067	29324.21854295661	0.9684021995448899	28556.207322464503
236.97139523253875	22584.756285182044	29101.83761015666	0.9682489317427021	28337.958127355843
238.17429571595267	22418.626196413425	28879.582712702726	0.9680956639405143	28119.708932247187
239.37719619936655	22252.4961076448	28657.453743478538	0.9679423961383266	27901.45973713854
240.58009668278046	22086.36601887618	28435.45059548919	0.9677891283361387	27683.210542029883
241.78299716619438	21920.235930107556	28213.573161860968	0.9676358605339509	27464.961346921227
242.98589764960826	21754.105841338933	27991.821335841138	0.9674825927317631	27246.712151812582
244.18879813302217	21587.97575257031	27770.195010797805	0.9673293249295754	27028.462956703926
245.3916986164361	21421.845663801683	27548.69408021975	0.9671760571273875	26810.21376159527
246.59459909984997	21255.715575033064	27327.318437716247	0.9670227893251997	26591.96456648662
247.79749958326389	21089.58548626444	27106.067977016864	0.9668695215230119	26373.715371377963
249.00040006667777	20923.45539749582	26884.94259197136	0.9667162537208241	26155.466176269314
250.20330055009168	20757.325308727195	26663.942176549437	0.9665629859186363	25937.216981160658
251.4062010335056	20591.195219958572	26443.06662484064	0.9664097181164485	25718.967786052006
252.60910151691948	20425.06513118995	26222.31583105416	0.9662564503142607	25500.71859094335
253.8120020003334	20258.935042421326	26001.68968951863	0.9661031825120729	25282.469395834698
255.01490248374728	20092.804953652707	25781.188094682017	0.9659499147098851	25064.22020072605
256.2178029671612	19926.674864884077	25560.810941111406	0.9657966469076973	24845.97100561739
257.4207034505751	19760.54477611546	25340.558123492887	0.9656433791055095	24627.721810508738
258.623603933989	19594.414687346838	25120.429536631313	0.9654901113033217	24409.47261540009
259.82650441740293	19428.284598578208	24900.425075450185	0.9653368435011339	24191.22342029143
261.0294049008168	19262.15450980959	24680.544634991482	0.9651835756989461	23972.974225182777
262.2323053842307	19096.024421040966	24460.788110415466	0.9650303078967583	23754.725030074125
263.4352058676446	18929.894332272346	24241.15539700055	0.9648770400945705	23536.47583496548
264.6381063510585	18763.76424350372	24021.64639014309	0.9647237722923827	23318.226639856817
265.8410068344724	18597.634154735097	23802.260985357276	0.9645705044901949	23099.97744474817
267.0439073178863	18431.504065966477	23582.999078274912	0.964417236688007	22881.728249639516
268.24680780130024	18265.37397719785	23363.860564645263	0.9642639688858193	22663.47905453086
269.4497082847141	18099.243888429228	23144.84534033493	0.9641107010836315	22445.229859422205
270.652608768128	17933.11379966061	22925.953301327634	0.9639574332814437	22226.98066431356
271.85550925154195	17766.98371089198	22707.18434372405	0.9638041654792558	22008.731469204897
273.05840973495583	17600.85362212336	22488.53836374172	0.9636508976770681	21790.482274096248
274.2613102183697	17434.723533354743	22270.01525771479	0.9634976298748803	21572.233078987592
275.46421070178366	17268.59344458611	22051.614922093864	0.9633443620726925	21353.983883878936
276.66711118519754	17102.46335581749	21833.33725344596	0.9631910942705046	21135.734688770284
277.8700116686114	16936.333267048874	21615.182148454154	0.9630378264683169	20917.485493661636
279.0729121520253	16770.20317828025	21397.14950391755	0.9628845586661291	20699.236298552987
280.27581263543925	16604.07308951162	21179.23921675109	0.9627312908639413	20480.987103444328
281.47871311885314	16437.943000743006	20961.451183985402	0.9625780230617534	20262.737908335675
282.681613602267	16271.812911974383	20743.78530276657	0.9624247552595657	20044.488713227027
283.88451408568096	16105.682823205754	20526.241470356046	0.9622714874573779	19826.239518118367
285.08741456909485	15939.552734437133	20308.819584130484	0.9621182196551901	19607.990323009715
286.29031505250873	15773.422645668512	20091.51954158154	0.9619649518530022	19389.741127901063
287.4932155359227	15607.292556899883	19874.341240315713	0.9618116840508145	19171.491932792407
288.69611601933656	15441.162468131264	19657.284578054237	0.9616584162486267	18953.242737683755
289.89901650275044	15275.032379362643	19440.34945263286	0.9615051484464389	18734.993542575103
291.1019169861644	15108.902290594015	19223.535762001702	0.961351880644251	18516.744347466447
292.30481746957827	14942.772201825395	19006.843404225132	0.9611986128420633	18298.495152357795
293.50771795299215	14776.642113056776	18790.27227748155	0.9610453450398755	18080.245957249146
294.7106184364061	14610.512024288146	18573.822280063247	0.9608920772376877	17861.996762140487
295.91351891982	14444.381935519526	18357.493310376292	0.9607388094354998	17643.747567031834
297.11641940323386	14293.13294650027	18160.719671116098	0.9605685402467696	17444.74153406098
298.3193198866478	14280.761437358458	18145.371346263044	0.960239606056312	17425.321815783336
299.5222203700617	14268.38992821665	18130.02239410321	0.9599106718658543	17405.90209750569
300.7251208534756	14256.018419074842	18114.672814598147	0.9595817376753967	17386.48237922804
301.92802133688946	14243.646909933032	18099.32260770938	0.959252803484939	17367.062660950396
303.1309218203034	14231.275400791223	18083.971773398447	0.9589238692944814	17347.642942672748
304.3338223037173	14218.903891649414	18068.62031162688	0.9585949351040237	17328.223224395104
305.53672278713117	14206.532382507603	18053.26822235621	0.9582660009135661	17308.803506117456
306.7396232705451	14194.160873365794	18037.915505547964	0.9579370667231084	17289.383787839808
307.942523753959	14181.789364223985	18022.562161163663	0.9576081325326508	17269.964069562164
309.1454242373729	14169.417855082174	18007.208189164816	0.9572791983421931	17250.544351284516
310.3483247207868	14157.046345940365	17991.853589512957	0.9569502641517355	17231.124633006868
311.5512252042007	14144.674836798556	17976.49836216958	0.9566213299612778	17211.70491472922
312.7541256876146	14132.303327656748	17961.14250709621	0.9562923957708201	17192.285196451576
313.95702617102853	14119.931818514939	17945.78602425434	0.9559634615803625	17172.865478173928
315.1599266544424	14107.56030937313	17930.42891360548	0.9556345273899048	17153.445759896284
316.3628271378563	14095.188800231319	17915.071175111127	0.9553055931994472	17134.026041618636
317.5657276212702	14082.81729108951	17899.712808732787	0.9549766590089895	17114.60632334099
318.7686281046841	14070.445781947701	17884.35381443194	0.9546477248185319	17095.186605063343
319.971528588098	14058.07427280589	17868.994192170085	0.9543187906280742	17075.766886785696
321.1744290715119	14045.702763664081	17853.63394190871	0.9539898564376166	17056.34716850805
322.37732955492584	14033.331254522273	17838.273063609293	0.9536609222471589	17036.927450230403
323.5802300383397	14020.959745380462	17822.91155723332	0.9533319880567013	17017.50773195276
324.7831305217536	14008.588236238655	17807.54942274227	0.9530030538662436	16998.08801367511
325.98603100516755	13996.216727096846	17792.186660097617	0.952674119675786	16978.668295397463
327.18893148858143	13983.845217955037	17776.82326926083	0.9523451854853283	16959.248577119815
328.3918319719953	13971.473708813226	17761.459250193384	0.9520162512948707	16939.82885884217
329.59473245540926	13959.102199671417	17746.09460285673	0.951687317104413	16920.409140564523
330.79763293882314	13946.730690529608	17730.729327212346	0.9513583829139554	16900.989422286875
332.000533422237	13934.359181387797	17715.36342322168	0.9510294487234977	16881.56970400923
333.20343390565097	13921.987672245989	17699.996890846196	0.95070051453304	16862.149985731583
334.40633438906485	13909.61616310418	17684.62973004734	0.9503715803425824	16842.73026745394
335.60923487247874	13897.24465396237	17669.261940786568	0.9500426461521247	16823.31054917629
336.8121353558927	13884.87314482056	17653.89352302532	0.9497137119616671	16803.890830898647
338.01503583930656	13872.501635678753	17638.524476725048	0.9493847777712094	16784.471112621
339.21793632272045	13860.130126536942	17623.154801847184	0.9490558435807518	16765.05139434335
340.42083680613433	13847.758617395133	17607.78449835317	0.9487269093902941	16745.631676065706
341.6237372895483	13835.387108253324	17592.413566204432	0.9483979751998365	16726.21195778806
342.82663777296216	13823.015599111513	17577.04200536241	0.9480690410093788	16706.792239510414
344.02953825637604	13810.644089969705	17561.669815788526	0.9477401068189212	16687.372521232766
345.23243873979	13798.272580827896	17546.29699744421	0.9474111726284635	16667.95280295512
346.43533922320387	13785.901071686085	17530.92355029087	0.9470822384380059	16648.53308467747
347.63823970661775	13773.529562544278	17515.549474289946	0.9467533042475482	16629.11336639983
348.8411401900317	13761.158053402467	17500.17476940283	0.9464243700570906	16609.69364812218
350.0440406734456	13748.786544260658	17484.79943559095	0.9460954358666329	16590.27392984453
351.24694115685946	13736.41503511885	17469.42347281571	0.9457665016761753	16570.854211566886
352.4498416402734	13724.04352597704	17454.046881038506	0.9454375674857176	16551.434493289238
353.6527421236873	13711.67201683523	17438.669660220752	0.94510863329526	16532.014775011594
354.8556426071012	13699.30050769342	17423.291810323848	0.9447796991048023	16512.595056733946
356.05854309051506	13686.928998551612	17407.91333130918	0.9444507649143447	16493.1753384563
357.261443573929	13674.5574894098	17392.53422313815	0.944121830723887	16473.755620178654
358.4643440573429	13662.185980267992	17377.15448577214	0.9437928965334293	16454.335901901006
359.66724454075677	13649.814471126185	17361.774119172544	0.9434639623429717	16434.91618362336
360.8701450241707	13637.442961984372	17346.393123300735	0.943135028152514	16415.496465345714
362.0730455075846	13625.071452842565	17331.01149811811	0.9428060939620564	16396.07674706807
363.2759459909985	13612.699943700756	17315.62924358603	0.9424771597715987	16376.657028790421
364.4788464744124	13600.328434558945	17300.246359665874	0.9421482255811411	16357.237310512772
365.6817469578263	13587.956925417137	17284.86284631901	0.9418192913906834	16337.817592235126
366.8846474412402	13575.585416275328	17269.478703506815	0.9414903572002258	16318.39787395748
368.08754792465413	13563.213907133519	17254.09393119064	0.9411614230097681	16298.978155679833
369.290448408068	13550.842397991708	17238.70852933186	0.9408324888193105	16279.558437402187
370.4933488914819	13538.470888849899	17223.322497891826	0.9405035546288528	16260.138719124541
371.69624937489584	13526.09937970809	17207.935836831886	0.9401746204383952	16240.719000846895
372.8991498583097	13513.727870566281	17192.54854611341	0.9398456862479375	16221.299282569249
374.1020503417236	13501.356361424472	17177.16062569773	0.9395167520574799	16201.879564291601
375.30495082513755	13488.984852282663	17161.772075546192	0.9391878178670222	16182.459846013955
376.50785130855144	13476.613343140853	17146.382895620147	0.9388588836765646	16163.040127736309
377.7107517919653	13464.241833999044	17130.993085880928	0.9385299494861069	16143.620409458663
378.9136522753792	13451.870324857235	17115.602646289874	0.9382010152956493	16124.200691181017
380.11655275879315	13439.498815715424	17100.211576808317	0.9378720811051916	16104.78097290337
381.31945324220703	13427.127306573615	17084.819877397586	0.937543146914734	16085.361254625725
382.5223537256209	13414.755797431806	17069.427548019008	0.9372142127242763	16065.941536348077
383.72525420903486	13402.384288289995	17054.034588633906	0.9368852785338186	16046.521818070427
384.92815469244874	13390.012779148186	17038.6409992036	0.936556344343361	16027.10209979278
386.1310551758626	13377.64127000638	17023.246779689405	0.9362274101529033	16007.682381515138
