frame_start	frame_end	parasubiculum	HATA	fimbria	hippocampal_fissure	HP_tail	presubiculum-head	presubiculum-body	subiculum-head	subiculum-body	CA1-head	CA1-body	CA3-head	CA3-body	CA4-head	CA4-body	GC-ML-DG-head	GC-ML-DG-body	molecular_layer_HP-head	molecular_layer_HP-body	Lateral-nucleus	Basal-nucleus	Central-nucleus	Medial-nucleus	Cortical-nucleus	Accessory-Basal-nucleus	Corticoamygdaloid-transitio	Anterior-amygdaloid-area-AAA	Paralaminar-nucleus
0	30	3.85598	52.57705	38.62506	23.06489	14.51852	5.97257	19.58265	26.22899	59.59071	48.32612	39.75284	15.52451	36.56413	35.4863	30.96085	35.97653	33.29271	25.42371	36.97729	19.99336	41.80259	11.55181	29.10101	16.92077	48.451	83.74836	69.05019	31.56063
30	60	2204.01957	2172.86889	2104.38824	2131.37576	1889.17194	1911.09561	2407.87007	1840.7812	1795.92066	1838.0956	1210.18343	2232.07631	1997.59997	1955.43499	2053.05819	2223.37495	1905.6122	1797.09655	1889.48682	1471.63934	2179.88424	1527.33283	1693.82347	1812.42399	1938.47764	2527.4901	4023.19545	1714.22132
60	90	6701.81535	6558.42542	7053.74413	6867.85938	6765.89483	7449.83544	6167.93813	6095.96767	5968.8578	5919.08843	5385.60779	7080.66966	7045.59	6837.60869	6724.02138	6920.94217	6526.40202	6317.13803	6333.28674	4715.01745	6136.50883	6096.46984	5753.56408	6456.51944	6191.93744	6805.79215	8099.44697	5773.7332
90	120	9989.90852	12300.78102	15130.02198	11010.73242	12618.05686	9900.16941	11850.65271	9536.49523	12715.73171	10383.61332	8920.75803	11130.29873	12690.38291	10205.53809	13429.40248	10382.62387	13085.78018	9775.05489	12071.44478	8593.7023	11597.75344	10020.39707	9441.89558	10027.76955	12008.8	12512.40812	13152.6983	9711.47276
120	150	14567.41692	17033.38937	19068.88267	16971.35629	17077.91835	16265.21316	15381.67411	16957.36795	16828.3722	15414.30024	13454.602	17853.88738	18100.98654	17424.74764	17949.27127	16807.25124	17375.86135	16467.88607	16514.17387	13283.1667	15077.82801	14113.60186	15779.02192	16742.88077	16168.72737	16392.24853	19170.94447	14160.55913
150	180	14714.16861	14957.9518	19769.1786	17203.495	18703.87933	18501.9186	15792.25983	18102.83277	17262.15804	17427.47515	14892.73474	17979.95824	17860.99354	18245.59626	17887.95423	18104.53708	17730.74328	18522.28365	17093.20684	16909.62568	18004.09145	18477.47328	15807.94166	17636.80642	18170.81791	14052.176	16317.05098	17495.85822
180	240	14134.91096	15290.78304	20010.2282	17452.68614	18981.61168	16546.20962	17095.31326	18812.62465	19285.48844	17589.59764	16316.41861	17921.53868	18838.64344	18576.30667	20054.34641	17779.49536	19721.55765	18403.96887	18784.5783	17480.39042	18086.44409	16598.62891	16537.15213	17015.82801	18104.56506	15248.03866	18229.36438	16965.2051
240	300	15147.01657	15373.07859	18250.12485	17291.8547	18243.3773	17344.7938	15717.86667	18163.66868	18135.33595	17283.85616	16389.15543	17549.913	17911.54497	18258.7397	18501.29058	17741.98839	18263.85275	17991.43911	17619.06475	16861.45203	17525.26253	15361.11883	16793.54883	16571.8107	16895.34789	15045.08281	18279.81546	17055.75042
300	360	13881.97457	13132.98447	17608.87031	16994.93666	17787.91479	17805.94195	15417.71404	18810.16736	18371.22151	17178.0655	14914.46337	16371.0103	16225.82349	18680.23249	17493.87764	17795.02924	17372.13995	18454.2236	16614.69099	18127.2283	17529.09368	14513.73415	15402.65929	15444.25182	16103.28493	13531.02851	18471.04498	17199.72537
360	480	14640.73879	12645.15715	16597.55253	16329.34766	15939.07766	17193.23816	14717.74466	18426.05034	17457.44828	16259.73642	14624.02477	14741.59025	15679.59228	17075.88959	17008.26096	16436.48935	16732.20821	17681.43096	16031.24121	16847.65061	16659.11122	14943.0553	15909.53675	15186.93178	16034.65531	13330.07591	16132.4606	15999.30643
480	600	12036.72829	11733.54863	15929.71001	14498.61593	14579.22155	14789.14477	13850.88965	15786.01907	15929.32582	14658.89589	13663.06689	13388.86009	14078.59283	15798.15277	15590.15538	14973.37968	15477.96565	15566.32724	14797.94394	15863.79169	16133.26535	14061.90468	15354.92658	14342.63554	15428.32531	12974.09485	14756.37483	15552.27255
600	900	12360.78128	10758.92991	14664.86702	13570.46932	12839.18921	14491.57677	12454.60678	14995.66131	14611.35441	13323.11232	12862.76268	11887.1669	12951.83271	13679.07537	14251.20961	13305.07931	14225.30083	14162.27517	13531.08238	15317.95086	14615.71415	12478.65592	14590.65057	13178.31125	13467.71591	11968.95183	15623.7056	14048.21945
900	1200	10475.37465	9948.11468	12839.72059	11554.34246	11489.32886	12096.19057	11251.75694	13530.6034	12441.53794	12074.03116	11578.6563	9961.89586	11915.33822	11676.02943	12232.90582	11535.34387	12278.21618	12434.20042	11982.37755	13895.31373	13292.66306	12013.29678	13374.19687	12329.23258	12406.38703	10959.83226	13225.51172	12734.99689
1200	1500	9967.41597	9703.81917	12001.32189	11212.17044	9882.87062	12054.58169	10597.57444	12279.73444	11652.23568	10905.45998	10510.4528	9496.30967	10865.38463	10856.04677	11321.02401	10762.41803	11359.46063	11411.3573	10948.11422	12473.95239	11806.40737	10970.59786	12041.96893	11335.37589	11156.46286	10322.15726	12102.41658	11287.38535
1500	1800	8775.35048	9056.02477	10775.32176	9697.069	9739.68551	10530.51651	9572.83429	11142.86464	10659.61457	9639.00291	9811.64474	8401.32915	10231.92595	9641.73934	10311.29325	9649.24639	10327.43183	10098.54824	10078.56457	11207.6236	10203.62983	10806.76535	11474.11118	11389.61172	10509.62328	9305.7541	10304.38785	9790.91151
1800	2100	7860.0789	7735.11586	9959.03258	8251.96025	9082.62986	9061.36017	8552.28061	10136.37184	8969.9435	8799.03545	8937.93009	7304.27503	9122.96394	8235.52481	8868.52272	8476.2637	8991.76837	9005.69294	8864.69869	10248.44599	9068.07227	9979.64368	10721.41095	9802.58041	8820.99072	7988.88227	9839.80858	8273.38591
2100	2400	7496.46644	7778.69227	8899.3073	7736.73967	7998.65316	8318.56898	7933.94811	8630.21345	8759.27819	7804.03298	8196.4655	7138.55323	8623.79042	7313.56078	8516.5849	7463.482	8519.65273	7833.18169	8357.09318	9344.40279	8689.58488	9151.16427	9946.27731	9285.57554	8346.85906	7449.283	9681.9173	7866.43756
2400	2700	6844.57646	7573.38299	8288.62676	6793.13531	6899.38957	6930.72473	7252.69471	7298.40772	7794.54278	6977.25021	7696.47516	6878.6066	7903.76173	6675.75997	7695.47213	6831.59815	7808.66939	6859.93775	7694.84312	8386.15858	7416.09167	8419.81484	9321.10373	8953.72775	7904.82659	7514.46294	9050.94451	6815.92228
2700	3000	6559.95355	6813.83892	7720.77147	6426.46409	6488.27899	7217.30621	6686.73544	7405.24017	6997.73335	7059.83317	7380.42999	6186.95688	7786.0522	6128.12901	7109.69994	6310.62616	7163.42474	6905.50619	7088.09364	8038.28724	7331.02792	7741.93659	8255.8503	7642.79269	7113.86766	6641.23191	7603.25864	6879.84088
3000	3300	5934.28456	6359.36263	7496.01179	5981.87189	6595.44929	6268.86758	6339.81622	6650.13988	6698.58326	5886.9237	6860.53351	5919.40022	7497.53036	5759.17996	6919.09793	5865.21324	6951.30306	5976.11546	6802.94667	7404.26364	5530.72187	6981.89214	8099.07523	7097.62192	5664.21098	5589.93806	6586.34918	5316.96027
3300	3600	6088.16097	5894.07397	6530.02301	5622.89109	6333.36241	6565.81515	6101.27572	6388.10847	6386.39707	5790.51671	6497.139	5468.15959	6544.56646	5419.93136	5854.52749	5608.88736	5971.5197	5801.61482	6153.78997	6873.68641	5980.76112	6248.48389	7181.44452	6697.6965	5626.4174	5346.77482	6537.44674	5629.82798
3600	3900	4258.93562	5638.98845	6533.98994	5061.95062	5885.81634	5062.14517	5388.38797	5306.54439	5672.61939	5212.9718	6284.48107	4953.91852	6511.29721	4599.24999	5800.45878	4888.9816	5869.13653	4915.78729	5894.37065	6415.3956	5269.75744	6699.49092	6223.3673	6584.18685	5670.75593	5060.97653	6484.18412	4519.53834
3900	4200	5898.72852	6261.12767	6924.42204	5879.53931	5602.26578	6451.18498	5878.31135	5770.99849	5834.45134	5286.35667	6089.22037	5898.31457	6607.63977	5852.94604	5890.9184	5858.33464	5978.89607	5614.43867	5994.88191	5706.75858	4812.91418	5426.36974	6754.18175	6372.64732	4829.01406	5066.41169	5368.67284	4715.46399
4200	4500	5880.81115	4885.97128	6159.08561	5084.35731	5676.43743	5466.14161	5459.83404	5450.44415	5431.48208	5576.29881	5815.38488	4813.08583	5953.61492	5351.72561	5427.00877	5276.48686	5517.2142	5356.12696	5498.48156	5582.67563	4901.33386	5144.77621	5679.89487	6670.47318	5562.67541	5362.36779	6483.69511	4307.37109
4500	4800	4362.28991	5691.37832	5453.82382	4165.4457	5338.75685	4218.7974	5160.5532	5194.14473	5122.23588	4570.49009	5176.45821	4085.12193	5886.83772	3895.56598	5177.59664	4166.08465	5245.0539	4408.25655	5347.87644	5618.37674	4579.59407	4970.93392	5896.40958	5642.05231	4976.94315	5236.6078	6488.55401	4342.44482
4800	5100	4503.57371	6157.80462	5281.8277	4853.68855	4364.06376	4765.64943	4052.18413	5825.0514	5641.80472	5306.49731	6313.74681	4933.88986	5107.77474	5696.35698	5124.27678	5265.89381	5259.51777	5280.60326	5136.75414	5934.32062	5401.63503	6061.64557	7015.88285	5833.06381	5964.33775	5902.88203	5394.03895	5442.84095
5100	5400	4542.51226	4204.41486	5019.45414	4742.22832	4803.85156	4420.28302	5215.02256	4238.90129	5332.33918	4199.75794	5238.58392	4197.18993	5287.90038	3746.23255	4931.10774	3843.65484	5072.85026	4061.63688	5119.93588	5380.0025	4793.39755	5311.40527	5541.53217	5562.39833	5083.70699	4650.00135	6147.94798	3817.2535
5400	5700	3984.87142	5654.29819	4512.37097	4534.55781	4661.35264	6187.76726	4185.20521	6436.76368	4368.93548	4532.67682	5381.09429	3869.62068	4936.82821	3987.13304	4693.7973	4328.80343	4738.0992	4783.51594	4707.66787	5408.92417	4428.6119	5071.64452	5876.34597	6324.78644	5280.50717	5306.77522	5266.911	4769.55222
5700	6000	5277.93419	5718.26565	5461.08526	4616.35233	4471.8823	4914.3525	4453.94938	4743.55531	4884.79662	4888.85944	4588.53929	4342.9672	5310.38397	3954.89637	4699.07929	4370.46493	4810.10336	4475.30095	4743.03275	6012.26041	4096.55618	4908.94808	3763.16538	4553.00956	4401.67966	4086.7005	6325.66435	4010.03736
6000	6300	4220.80428	5144.00176	3658.19999	3944.34706	4312.45598	3841.58993	3393.37691	5123.74075	4269.85785	3874.72267	5265.53459	4159.88976	4393.31084	5000.68469	3861.12915	4864.52983	4011.26041	4303.291	4108.57166	4933.88061	3698.98192	4042.91234	4114.61292	4777.31221	3518.97368	4053.69212	7596.8699	3069.30579
6300	6600	5627.92433	4168.41666	4199.49561	3616.94125	5648.57911	6400.59553	3730.78036	4543.29618	3188.69122	3356.44435	3570.18197	3492.04938	4081.00697	2406.71036	3548.30824	2693.40603	3536.44121	3670.52064	3599.86199	4650.22431	3037.98112	3952.19449	3662.26223	3970.97431	3397.55737	3240.05235	4004.81016	3379.267
6600	6900	3844.27217	2891.8597	4240.65339	3628.28265	4186.59904	3947.73218	3957.74086	4681.77113	4978.6603	3729.57786	4492.57703	4316.61867	4989.62689	3879.63505	4944.15929	3471.05964	4832.21584	3750.77714	4692.70332	4045.54154	3145.06854	3699.90746	2667.9341	2919.40335	2885.27214	3302.75292	3557.59601	3330.05568
6900	7200	3482.64222	3611.5338	4212.52112	3405.71608	3658.07599	3771.54176	4318.81558	4573.02026	3997.25829	3309.98099	4607.78482	3297.67197	3926.82173	2576.84591	3857.33708	2760.19851	3976.35538	3452.18152	4000.58699	3717.29933	3768.34344	8122.37787	6040.42265	5431.89547	4510.81712	3892.7544	4362.8747	2706.582
