frame_start	frame_end	parasubiculum	HATA	fimbria	hippocampal_fissure	HP_tail	presubiculum-head	presubiculum-body	subiculum-head	subiculum-body	CA1-head	CA1-body	CA3-head	CA3-body	CA4-head	CA4-body	GC-ML-DG-head	GC-ML-DG-body	molecular_layer_HP-head	molecular_layer_HP-body	Lateral-nucleus	Basal-nucleus	Central-nucleus	Medial-nucleus	Cortical-nucleus	Accessory-Basal-nucleus	Corticoamygdaloid-transitio	Anterior-amygdaloid-area-AAA	Paralaminar-nucleus
0	30	1.94975	60.05093	31.5119	27.76899	19.16906	9.99292	33.32832	46.8052	98.44032	33.56143	41.02314	23.10928	7.02919	33.1957	20.70151	38.13261	27.70438	18.60652	30.55716	27.27324	14.2516	19.97	58.65931	30.49723	15.46766	20.51215	35.47687	12.16045
30	60	2388.03309	1717.24517	1916.10942	2199.35309	1815.12448	1986.14165	2488.21168	1456.51492	1842.45602	1771.0149	1307.64632	2097.34749	1834.99768	1724.13037	2127.69356	2120.86901	2004.17282	1642.19969	1956.37618	1143.81694	1942.3646	1398.7422	1670.73187	1818.36993	1907.96389	2338.36152	4529.09301	1377.51836
60	90	6998.56784	6289.33211	6761.35985	6735.30734	7179.39245	7825.98608	6016.47833	5800.31175	5603.11926	5942.95547	5046.20047	6334.75439	5845.0368	6320.92382	6428.29646	6576.26263	6162.26842	6235.04811	5786.47993	4488.81605	6103.30504	5320.95513	5067.48204	4915.32473	5286.59777	5901.01275	8550.48482	5596.03055
90	120	9876.18417	12367.07043	13971.26798	9626.09995	12871.18289	8376.86155	10917.21083	9026.34372	11619.3831	10490.46117	8767.40442	9300.74261	11168.65231	8839.38573	11449.29745	9272.74905	11618.29512	9149.61317	10795.55577	8680.76384	12213.30385	8829.088	9525.21289	8867.7538	11596.04943	12445.18536	12832.22879	10878.46457
120	150	14449.72508	20229.25899	18056.58475	16115.42518	17178.88898	14696.45362	14043.39756	15846.62555	16774.37804	16144.07414	12901.82067	15095.5765	16978.01911	16132.09411	17826.18038	16113.92088	17160.55814	16064.67736	15850.73584	13154.312	14554.93076	14109.51665	15954.96639	18568.88156	16851.37692	17682.45857	18640.47504	14463.42733
150	180	14591.55763	14331.9167	19051.89246	16188.24305	18681.50556	18254.45934	15245.86665	18984.19338	16615.39846	17238.19737	14123.84332	15598.82761	15188.06797	17355.59636	15740.2991	17095.22625	16162.21075	18293.19414	15642.09437	17501.30161	17831.93541	16534.2522	15636.02995	16885.46568	16544.32851	13653.70506	16615.47189	19225.34444
180	240	13593.63775	15673.44874	18968.79766	17353.60159	19237.69673	16266.87563	16428.36262	19286.27669	18397.90989	17630.38998	16403.17457	17437.41502	18531.20286	18899.35703	19021.85117	18144.58635	18823.14159	18405.78563	18193.71731	17908.37976	18436.3232	16490.98558	16709.16056	18092.16486	18623.09171	15781.67378	18398.08624	17133.83088
240	300	16222.4848	16426.80843	16913.39988	16556.6869	18181.53795	17555.31923	15111.1698	17821.31633	17173.08153	17108.73608	15377.55094	15781.2508	16426.93894	16891.63797	17006.17028	16889.95787	16854.59362	17519.69928	16419.86223	16936.12661	16077.04257	14044.81967	14597.97575	15967.28031	16415.90357	14888.45367	17561.48492	16582.86271
300	360	13764.60794	13012.63238	16958.29464	16351.26496	18429.45079	17391.24864	14745.32302	18472.00715	17759.04383	16889.90193	15336.36414	14994.78945	15272.30828	17628.90793	16813.86812	17143.6163	16830.74874	18017.11912	16194.70238	17331.29794	16770.7277	13921.18153	12582.21794	13706.97827	15703.19443	13199.15921	17245.8653	17195.08126
360	480	15154.9973	12719.09555	15314.00138	15676.88647	16523.31767	17071.17934	14221.99461	18190.86337	16906.06282	15697.46509	14192.061	13329.23525	14177.46274	16014.26365	15761.35254	15532.12626	15584.25681	17031.08553	15091.92775	16336.54855	16199.25275	14123.4392	14261.03613	14800.4963	15859.06134	13501.07765	16011.48148	15859.2234
480	600	11345.55678	11634.26093	16118.03529	14260.39243	15006.06513	14716.86533	13653.67177	16504.46519	16046.65193	14351.40242	13533.77663	12926.79395	13924.2802	15927.48511	15657.67864	15027.79985	15601.3864	15521.57873	14750.97426	15411.13749	15925.61164	13640.53066	13607.99731	14015.90238	15151.80845	12694.40922	14080.14035	15421.41613
600	900	12495.91795	10300.41038	14592.26242	12983.09874	12888.08934	14745.46718	11895.17677	14828.7621	14115.83802	13119.83072	13029.01225	10761.6128	12791.31243	13082.3867	13955.54671	13037.07633	13908.55629	13984.02833	13256.59002	14949.91819	14302.7871	12540.92443	13962.09025	13043.58367	13318.19822	11920.51007	14533.92249	13872.43838
900	1200	10268.24194	9968.20338	12519.20219	10889.6158	11627.38671	11379.88953	11238.50121	13443.24322	12521.38132	11648.66967	11377.89961	8794.11156	11335.79802	10671.06479	11948.89516	10677.10392	12047.8708	11976.74044	11713.99126	13161.67487	12955.6052	12050.5986	13133.1827	12759.57035	12533.16277	11083.32494	12576.17319	12653.26715
1200	1500	9320.25854	9818.32645	11741.46459	10589.26668	9866.15065	11696.31253	10282.87394	12615.34947	11420.17971	10495.33982	10101.19809	8990.10157	10490.16262	10429.86052	10932.13092	10420.84306	10959.12781	11184.86498	10562.98979	11947.03487	11232.15222	10391.73651	11638.2561	11478.53652	11153.28965	10307.5232	11575.51263	10900.93912
1500	1800	8209.52127	8869.4545	10622.31357	8886.61549	9394.22791	10100.18338	8547.78756	11184.52131	10010.70314	9387.66983	9575.39329	7678.06716	9869.09656	9008.89422	9723.5571	9195.24823	9740.69809	9782.01345	9422.7509	11116.58617	9793.8568	10567.19799	11219.77108	11275.91657	9999.78498	9006.61508	10318.44507	9514.96201
1800	2100	8052.50267	7446.25105	9167.27682	7736.46799	8541.71619	8781.45387	8302.35368	10069.78644	8455.8378	8617.11077	8621.50659	6493.7363	8337.33557	7836.32596	7940.51286	8163.15852	8201.15506	8777.4296	8186.25926	10369.13948	9098.886	9644.92637	10848.70597	9586.11811	8139.43733	7746.05533	9439.19537	8706.74454
2100	2400	7488.24503	6928.22996	8575.96414	7438.80484	8012.69852	8270.09807	7581.88486	8733.52111	8633.08764	7587.61412	8110.18846	6123.11548	7991.53922	6831.96056	8170.98613	6997.99936	8225.04842	7704.46354	7981.49249	9429.6512	9029.47654	8236.87097	9572.56169	9008.17739	8197.69707	7171.18654	9773.39232	8229.24309
2400	2700	6741.36589	7583.98161	8219.26889	6321.73586	6619.16907	6496.59178	6852.38514	7195.40201	7390.30868	6653.31021	7876.98475	5918.53183	8180.10521	5744.12	7523.38776	6141.91023	7692.70741	6324.3949	7615.5914	8545.58363	7066.56227	8477.54422	9450.3234	9199.67163	7495.83386	7496.47553	9913.55156	6725.51676
2700	3000	6663.74866	6956.59016	7428.36769	5940.11072	6351.13695	6900.16201	5844.98188	7256.90724	6373.03578	6900.25048	6795.83087	5777.57326	7426.74079	5780.98063	6668.56282	5968.2023	6681.2149	6616.21936	6428.38235	7370.85247	7388.47994	7794.39653	7585.47925	6950.82153	7069.69514	6916.28183	6883.4921	6876.96907
3000	3300	6456.49014	6516.39295	7615.90644	5730.12179	6536.00115	6020.679	6054.43437	6627.07003	6471.23976	6093.75488	6968.50247	5355.78883	7308.71229	5533.09981	6721.27075	5836.01113	6847.15596	6001.52388	6701.46765	6804.89804	5353.6496	6211.26232	7718.44739	6923.45187	5298.21161	5482.48323	6632.86719	5217.27012
3300	3600	6614.53793	6479.14041	6413.15984	5460.48148	6157.68276	6564.9611	6161.50202	6292.62173	6385.37579	5537.38408	6074.35483	4818.548	5959.90973	5000.94014	5535.28753	5300.00844	5746.87386	5425.07652	5875.19999	6824.8618	6026.51969	5614.63575	7963.96436	7401.13925	5424.26628	5928.93467	6955.33817	5993.9643
3600	3900	3271.14592	5354.34527	6075.21402	4795.33342	5558.04441	4218.58185	5454.04632	5574.67648	5460.52678	4945.95457	5504.00025	4781.95247	5760.88481	4316.75048	5178.9744	4563.74773	5288.40603	4596.98899	5348.08157	5668.5839	5440.36352	7387.117	6890.4189	7427.77063	6152.86206	5404.58679	5989.30066	4773.26579
3900	4200	6030.39836	5998.1085	5692.90132	4931.02755	5292.29765	5582.30924	5411.01025	5248.28312	5350.10222	4643.61331	6316.85085	5162.4014	5556.56333	4652.94304	4893.15157	4837.84802	5099.64925	4668.42064	5399.0466	5684.75879	4770.72671	4802.42043	7026.23433	5842.94553	4361.43976	4447.30778	5338.17989	3941.54241
4200	4500	6776.52641	4969.99406	6606.0598	4632.55367	5323.72403	5131.024	5071.86024	5122.94353	4833.70559	5453.85909	5928.24436	4196.31662	5877.47599	3722.73098	5433.40114	4243.74803	5526.59391	4675.41007	5300.7644	5519.25957	4972.46595	5085.7485	5918.41105	6493.11806	5509.91495	5314.82513	6308.22618	4510.13365
4500	4800	4902.62971	5115.39743	4634.86237	4188.98696	4912.50545	4220.91721	4423.40817	4656.27833	4580.81331	4659.29386	5616.5888	3849.56898	5909.76716	3956.69003	4812.10573	4100.53269	4907.45224	4571.28965	5072.16635	5212.59011	4585.79815	5318.20111	7356.7054	6006.9857	4517.01595	4848.78094	5133.89888	4623.91678
4800	5100	4653.97535	5451.05899	4748.17863	4347.57256	4588.13857	4473.99771	3463.09851	5882.73507	5006.24385	5430.46858	6005.81048	3299.00007	4664.99298	4369.30307	4332.7639	4328.41551	4467.35694	5145.22477	4538.96769	6482.07407	5022.47198	4991.80892	6028.35221	5468.9499	5791.36547	5975.86341	5533.78754	4556.68636
5100	5400	4092.27797	4929.17622	3605.69878	3906.42182	4303.94548	4059.6311	4647.84532	4190.58223	4681.41036	3551.76611	4473.40388	4014.19343	4938.29063	3247.68797	4060.71701	3452.11681	4177.32365	3539.72916	4428.91267	4719.47933	4151.578	4461.85517	6378.71708	6139.86977	4794.01653	4714.03396	5614.92102	3094.78769
5400	5700	4260.40309	5822.6049	4472.12241	4432.47277	4678.38589	7151.90634	3892.3869	6811.87277	4429.55901	4377.44898	5982.14926	3812.50198	5403.42513	3741.36764	5093.29712	4281.11857	5120.65131	4917.99774	5040.77139	5474.53568	4562.02387	4711.11176	4848.0214	4254.62549	4745.0123	5125.89123	6723.19147	4660.5751
5700	6000	5025.04414	6509.6097	5769.84606	3907.18244	4616.96501	3028.81884	3919.02379	3168.91035	4021.02688	4985.68091	4488.17936	4284.35594	5250.2392	3913.17989	4543.42598	4412.73496	4697.84581	3761.74953	4462.94147	6210.52943	4100.7092	5109.81493	3328.81537	4371.1355	3879.68357	3694.73638	6113.79453	3231.00897
6000	6300	4572.91173	5445.9744	3216.7824	4246.32122	4167.41461	4991.71917	2958.24932	7600.45074	4330.36897	4090.10366	4257.52237	3094.30817	4047.78284	5848.94014	3519.84051	5370.33633	3700.2871	5262.22886	3700.40003	4915.83972	3105.54158	2879.61375	4163.67885	3675.6505	2830.51685	4483.68822	7749.53107	3773.19689
6300	6600	5485.32092	4175.19322	4156.97291	3264.99229	6352.00698	5412.35648	3012.66739	4586.86542	3033.57334	3292.52768	3403.92397	3260.59477	4225.64512	2430.2231	3344.58924	2695.2259	3378.4395	3428.87136	3335.37484	4283.68862	3379.9714	5505.10773	4477.32263	5152.80057	4698.53539	3620.40927	4041.6459	2648.72805
6600	6900	3437.27109	3421.90598	2702.7989	3028.05125	3528.84084	2674.94605	3930.36413	5194.55041	4606.46007	3688.49819	3694.58725	3408.92059	3289.2388	3458.90949	3275.68911	3348.53125	3401.44195	3156.99413	3701.63741	4516.32492	3414.28913	3135.5022	2486.92169	2091.10078	2483.63285	3473.91457	2417.16434	3128.59593
6900	7200	3506.36082	3176.30642	4063.32242	3031.96301	3563.38681	4063.68432	4752.41126	4603.19138	4125.23003	3223.82157	4329.22803	1937.69068	4297.63465	1999.7041	3855.0314	2244.14538	4254.52313	3301.63857	4388.67727	1981.7712	2136.65106	3428.34233	2742.30461	3632.44915	3034.18315	2549.85288	2919.46933	2586.59851
