frame_start	frame_end	Left-Cerebral-White-Matter	Left-Cerebellum-White-Matter	Left-Cerebellum-Cortex	Left-Thalamus	Left-Caudate	Left-Putamen	Left-Pallidum	Brain-Stem	Left-Hippocampus	Left-Amygdala	CSF	Left-Accumbens-area	Left-VentralDC	Left-choroid-plexus	Right-Cerebral-White-Matter	Right-Cerebellum-White-Matter	Right-Cerebellum-Cortex	Right-Thalamus	Right-Caudate	Right-Putamen	Right-Pallidum	Right-Hippocampus	Right-Amygdala	Right-Accumbens-area	Right-VentralDC	Right-choroid-plexus	AirCavity	Skull	Vermis	Pons	CSF-ExtraCerebral	Head-ExtraCerebral	ctx-lh-bankssts	ctx-lh-caudalanteriorcingulate	ctx-lh-caudalmiddlefrontal	ctx-lh-cuneus	ctx-lh-entorhinal	ctx-lh-fusiform	ctx-lh-inferiorparietal	ctx-lh-inferiortemporal	ctx-lh-isthmuscingulate	ctx-lh-lateraloccipital	ctx-lh-lateralorbitofrontal	ctx-lh-lingual	ctx-lh-medialorbitofrontal	ctx-lh-middletemporal	ctx-lh-parahippocampal	ctx-lh-paracentral	ctx-lh-parsopercularis	ctx-lh-parsorbitalis	ctx-lh-parstriangularis	ctx-lh-pericalcarine	ctx-lh-postcentral	ctx-lh-posteriorcingulate	ctx-lh-precentral	ctx-lh-precuneus	ctx-lh-rostralanteriorcingulate	ctx-lh-rostralmiddlefrontal	ctx-lh-superiorfrontal	ctx-lh-superiorparietal	ctx-lh-superiortemporal	ctx-lh-supramarginal	ctx-lh-frontalpole	ctx-lh-temporalpole	ctx-lh-transversetemporal	ctx-lh-insula	ctx-rh-bankssts	ctx-rh-caudalanteriorcingulate	ctx-rh-caudalmiddlefrontal	ctx-rh-cuneus	ctx-rh-entorhinal	ctx-rh-fusiform	ctx-rh-inferiorparietal	ctx-rh-inferiortemporal	ctx-rh-isthmuscingulate	ctx-rh-lateraloccipital	ctx-rh-lateralorbitofrontal	ctx-rh-lingual	ctx-rh-medialorbitofrontal	ctx-rh-middletemporal	ctx-rh-parahippocampal	ctx-rh-paracentral	ctx-rh-parsopercularis	ctx-rh-parsorbitalis	ctx-rh-parstriangularis	ctx-rh-pericalcarine	ctx-rh-postcentral	ctx-rh-posteriorcingulate	ctx-rh-precentral	ctx-rh-precuneus	ctx-rh-rostralanteriorcingulate	ctx-rh-rostralmiddlefrontal	ctx-rh-superiorfrontal	ctx-rh-superiorparietal	ctx-rh-superiortemporal	ctx-rh-supramarginal	ctx-rh-frontalpole	ctx-rh-temporalpole	ctx-rh-transversetemporal	ctx-rh-insula
0	30	13.029906272888184	29.84153938293457	19.290464401245117	27.097537994384766	45.651798248291016	21.97533416748047	-24.8223934173584	34.082244873046875	47.04694366455078	88.99932861328125	28.688186645507812	77.56075286865234	-5.381608486175537	-138.0135040283203	13.224421501159668	29.412242889404297	32.698265075683594	14.445143699645996	-25.527971267700195	5.444497585296631	41.096092224121094	46.912288665771484	10.347603797912598	-17.130590438842773	13.563712120056152	-100.01483154296875	14.37979507446289	17.66284942626953	18.107942581176758	15.066985130310059	15.339950561523438	25.76291847229004	61.36537551879883	46.5338249206543	7.430092811584473	-6.76053524017334	87.98788452148438	-1.005853295326233	15.350878715515137	20.630361557006836	10.6527738571167	-9.832498550415039	37.26673126220703	18.42426300048828	41.31488800048828	24.680973052978516	-34.175392150878906	-9.156778335571289	-4.685690879821777	-40.66322708129883	55.362003326416016	8.997373580932617	22.689176559448242	-8.217851638793945	17.623516082763672	7.91426420211792	74.10796356201172	35.12327575683594	1.1488877534866333	1.3162779808044434	40.49843215942383	30.29283905029297	-29.481975555419922	-12.77369213104248	-37.910247802734375	129.98150634765625	-7.499624729156494	1.1540696620941162	7.974586486816406	35.69020080566406	33.308692932128906	21.562381744384766	10.3141450881958	32.550968170166016	14.577068328857422	19.89797592163086	65.06713104248047	5.082509994506836	-3.52223801612854	17.327892303466797	129.48779296875	16.888444900512695	69.15804290771484	5.235405921936035	17.326854705810547	-17.987199783325195	21.425350189208984	-8.628493309020996	11.092663764953613	1.3505926132202148	2.3015801906585693	3.7387969493865967	39.36391067504883	-19.389263153076172	56.25448226928711	7.627582550048828	119.87591552734375	74.3468246459961	-16.700069427490234	39.38710403442383
30	60	559.350341796875	1535.04736328125	2268.6669921875	2561.7265625	3065.217041015625	3357.0966796875	1205.118408203125	1899.2132568359375	2517.49560546875	2833.7080078125	1616.1749267578125	1693.9510498046875	2418.7021484375	12080.93359375	531.9832763671875	1077.4049072265625	2227.968994140625	2776.641357421875	3255.48681640625	4093.5615234375	1761.6500244140625	2052.95361328125	2200.658447265625	1062.3604736328125	1551.1900634765625	14234.4580078125	181.17669677734375	603.1110229492188	4297.39306640625	1593.7030029296875	2483.28271484375	1081.3380126953125	4516.40625	583.3217163085938	4446.2724609375	4067.3642578125	1018.5228271484375	2881.295166015625	3608.0400390625	3051.177734375	2758.218994140625	3024.44384765625	4444.08740234375	3859.637939453125	4793.775390625	2819.870849609375	2423.766357421875	2637.8671875	5003.7998046875	2426.986328125	3773.304443359375	5670.171875	4473.95458984375	3566.4384765625	3877.89892578125	3684.391357421875	3351.893310546875	3736.970458984375	3859.42529296875	2518.105712890625	3176.7275390625	4262.8984375	4666.11669921875	1908.5582275390625	5803.98681640625	4978.43408203125	4449.888671875	4992.76708984375	3049.35791015625	3349.663818359375	2570.588134765625	2528.244873046875	3207.750732421875	2899.063232421875	3393.376220703125	3404.3671875	4317.81982421875	3797.09033203125	3879.14599609375	2369.317138671875	1981.630859375	4321.6904296875	4916.4306640625	3814.949462890625	3641.28173828125	5918.94580078125	4368.0517578125	4810.7900390625	3473.193603515625	4363.974609375	3765.049072265625	3655.05810546875	4045.142822265625	2466.638916015625	3809.201904296875	3733.809814453125	4853.98828125	1636.217529296875	7614.4423828125	3776.070068359375
60	90	1978.5157470703125	5301.16943359375	8669.4130859375	9000.8466796875	12512.7685546875	12791.5595703125	6828.2109375	5459.33251953125	8479.3046875	5913.17822265625	4377.15478515625	6246.72998046875	7566.73095703125	56151.48828125	1694.197998046875	4435.75	8679.8837890625	10353.67578125	12685.96875	14489.2333984375	6006.67529296875	7825.95703125	4989.28759765625	11230.1591796875	6222.68701171875	45050.95703125	488.87139892578125	2009.8580322265625	10657.7548828125	5628.9287109375	5919.3623046875	3497.90185546875	13308.6650390625	4419.4658203125	16733.876953125	13026.037109375	4907.09619140625	10148.275390625	13148.47265625	11244.8427734375	10652.9013671875	12500.0068359375	15020.740234375	13609.9248046875	14209.3046875	11480.865234375	8752.1484375	10484.6611328125	14557.2138671875	11186.5947265625	15399.568359375	21725.732421875	14167.1015625	11430.6630859375	15282.1064453125	14470.61328125	9794.314453125	14897.431640625	14203.23046875	12155.58203125	11034.98046875	14323.1337890625	16639.048828125	6535.888671875	21681.599609375	12094.4169921875	14360.900390625	14911.1318359375	15687.43359375	17033.083984375	5893.03466796875	9682.1884765625	12871.755859375	10977.189453125	13950.513671875	14106.55078125	14251.8837890625	12915.146484375	13549.3427734375	11134.1708984375	7286.2119140625	17722.6875	15973.943359375	12014.4140625	15442.0400390625	25366.974609375	14720.2587890625	14600.716796875	14039.1884765625	15066.40625	11997.0625	14617.6396484375	14187.4296875	11394.65234375	10652.486328125	14041.9765625	16566.98046875	7740.0390625	21813.890625	10638.490234375
90	120	3417.4189453125	9085.1572265625	15971.7763671875	17432.716796875	24400.763671875	25620.83203125	10598.6376953125	9279.998046875	16056.1826171875	9674.8896484375	7039.47607421875	10176.845703125	12545.98046875	85370.1328125	3574.3046875	8312.9736328125	16198.2783203125	18679.994140625	25981.470703125	25231.859375	11036.1943359375	12802.6875	11567.5634765625	17509.6953125	12005.6240234375	86873.1015625	747.2872314453125	3753.853515625	20461.91015625	9988.630859375	8642.5322265625	6524.64453125	25089.154296875	8277.0693359375	32094.484375	26215.474609375	10399.048828125	18338.900390625	25183.2578125	20157.880859375	23052.951171875	24616.513671875	25136.9375	26355.125	27083.88671875	21833.830078125	14401.9375	25457.921875	26993.740234375	19825.494140625	29308.833984375	40461.12109375	26871.591796875	20955.5625	28265.37109375	26680.27734375	18723.15625	29551.845703125	26862.33203125	24843.12890625	20584.533203125	25980.177734375	30416.162109375	12423.5224609375	38590.3203125	20576.806640625	26188.140625	25959.47265625	27708.765625	30735.681640625	9542.59765625	16024.623046875	24297.255859375	19409.57421875	24034.927734375	26322.37890625	24683.216796875	25524.560546875	23692.94140625	20295.1875	11644.9775390625	27542.5078125	25635.310546875	21690.5234375	27161.44921875	41944.22265625	27534.515625	25379.8828125	26698.48046875	26973.3046875	23671.314453125	27393.6171875	26431.6171875	21688.5390625	20596.599609375	25255.623046875	30430.86328125	10866.2509765625	43896.7890625	16631.794921875
120	150	4975.98388671875	13784.14453125	23802.478515625	25305.591796875	35733.17578125	36662.48046875	15848.94140625	14426.2001953125	22983.01953125	13855.267578125	10674.1064453125	20711.875	17314.27734375	102801.609375	4917.9072265625	12484.482421875	23401.134765625	26376.33203125	35246.38671875	37202.16015625	15759.412109375	20417.28515625	15757.9736328125	23079.828125	16366.513671875	103006.0234375	742.8902587890625	5279.3125	29881.201171875	15734.2744140625	10687.8681640625	8754.150390625	35455.2734375	16556.65625	45547.8359375	38280.1796875	15282.017578125	28513.8515625	37161.0703125	30618.5	34769.1640625	35999.63671875	36235.89453125	36173.0234375	37487.9375	32035.662109375	19621.390625	38712.24609375	39252.765625	29474.0625	41504.91015625	59794.36328125	40373.64453125	30706.880859375	41530.39453125	39489.359375	25732.23046875	42124.3671875	38431.35546875	37602.38671875	27942.3828125	38829.39453125	43365.0078125	20682.0546875	56013.41015625	27711.990234375	37229.671875	28838.125	39915.875	42227.22265625	15904.779296875	25682.509765625	36424.421875	27591.447265625	36153.171875	39695.2109375	34652.99609375	35751.49609375	35747.59765625	30253.123046875	16700.138671875	42090.9765625	38425.89453125	31674.025390625	41376.41796875	60919.47265625	42300.87890625	35212.5078125	39761.4609375	40276.3515625	31857.015625	40503.7265625	39519.921875	35378.0546875	28594.0078125	37204.44140625	46111.05859375	19299.8984375	65385.4296875	23789.615234375
150	180	5882.57373046875	15092.7861328125	26994.408203125	29133.9140625	40113.4375	41814.7109375	15379.7216796875	15747.9130859375	23894.54296875	16341.380859375	11551.8271484375	23290.82421875	18883.06640625	94331.4609375	5624.81787109375	13924.669921875	26777.21875	31364.1796875	41164.8359375	42379.07421875	16134.4365234375	20260.068359375	19501.65234375	26234.6640625	18260.423828125	106152.2421875	685.6714477539062	5835.408203125	33980.31640625	17632.49609375	9329.1318359375	9362.43359375	42161.453125	17816.63671875	49348.578125	44275.33203125	16341.3857421875	31267.798828125	41673.66796875	35443.0859375	38093.1640625	43022.97265625	40796.76171875	41174.9140625	41380.703125	35544.98046875	19735.33984375	46970.1640625	43582.58984375	33619.3671875	44602.12890625	69069.03125	46152.32421875	35495.015625	44562.01171875	45247.46875	31948.447265625	49253.43359375	42912.0	43236.51953125	30391.015625	43022.3203125	48251.875	22227.541015625	60764.8046875	29762.3515625	43408.50390625	35350.671875	47147.72265625	49864.953125	20241.951171875	26845.8984375	42208.7734375	33774.3828125	39989.3203125	45360.40234375	37922.5078125	39828.203125	39446.18359375	33996.6640625	22952.57421875	47119.5234375	43422.62890625	34773.8046875	46244.2109375	68050.1015625	48353.83203125	43370.1328125	44055.37890625	44599.96875	29519.515625	45017.96484375	44370.8203125	42321.32421875	31031.609375	42184.96875	53905.1328125	22510.3984375	80027.578125	26378.396484375
180	240	6232.7646484375	16379.287109375	27596.609375	30063.1328125	43767.0390625	43546.4609375	17846.302734375	15902.6708984375	23878.626953125	16905.345703125	8650.328125	21527.13671875	18595.537109375	102932.4453125	5836.37744140625	14992.1552734375	27397.3203125	32079.515625	43644.23046875	42714.70703125	16780.49609375	23133.6875	20554.248046875	27227.953125	18064.150390625	86046.578125	532.3853149414062	5828.177734375	35003.8046875	17929.046875	7903.4287109375	9682.78125	39619.56640625	18302.830078125	52212.91015625	45788.78515625	18525.998046875	31576.859375	43441.4765625	36154.90234375	35326.74609375	42610.33203125	40869.8359375	40900.07421875	40929.47265625	36045.75390625	22272.271484375	47632.8125	42998.96875	32164.68359375	45270.37109375	67300.1640625	46923.89453125	34166.3515625	46280.84375	46208.515625	33342.16796875	50215.84765625	43664.203125	45120.5859375	31572.380859375	43344.93359375	49293.6484375	25560.056640625	53542.99609375	28741.15234375	44575.0	33472.0703125	46213.984375	49521.47265625	19468.076171875	29170.01953125	43293.33203125	33256.5546875	39795.10546875	47659.32421875	38408.5078125	41599.64453125	40004.58203125	35573.8359375	20039.927734375	48072.38671875	40929.828125	35193.88671875	46253.16015625	67824.6953125	47862.0390625	41814.5	45681.390625	46492.4765625	32258.677734375	46526.2890625	44358.49609375	44370.53125	31031.62890625	42433.26953125	53056.0859375	22462.9453125	75244.328125	25808.193359375
240	300	6615.4541015625	15613.4765625	26875.28515625	30821.2109375	40435.1796875	40688.78515625	19155.162109375	15873.4453125	24550.939453125	17258.1484375	8118.6201171875	22745.791015625	18169.044921875	69396.9921875	6289.31884765625	14483.8515625	26535.380859375	30854.90234375	41104.90234375	42748.76953125	15639.578125	22205.7890625	17847.689453125	26534.212890625	17567.48828125	66809.203125	410.8268127441406	5823.35888671875	33684.3515625	18303.734375	6989.48291015625	9681.7490234375	39172.87890625	20632.16015625	50080.8359375	44345.203125	17120.9765625	32998.42578125	41516.3359375	34705.609375	35567.94140625	40639.26953125	37599.55859375	40262.48046875	40108.05078125	35841.49609375	20653.25	47044.53515625	41348.078125	33143.6484375	43417.5625	62926.44921875	44566.23046875	34311.2421875	44317.9296875	42519.4453125	30917.583984375	47012.2265625	41987.23046875	43926.60546875	30468.935546875	42249.91015625	46414.1796875	24192.783203125	48883.171875	28115.365234375	40949.98828125	31342.291015625	45122.78125	49063.75	19636.123046875	28265.109375	41696.140625	32880.01953125	35627.5625	44985.89453125	38124.15234375	39014.0859375	38411.50390625	34407.16015625	18746.673828125	44623.3515625	37676.76171875	32934.76953125	44509.0859375	61818.9765625	45606.7890625	38099.77734375	43409.66015625	44384.44140625	31356.228515625	44045.328125	42485.15234375	44185.1171875	31351.240234375	41352.08984375	50995.29296875	22286.66015625	52275.23828125	26536.439453125
300	360	6711.81103515625	15806.1689453125	25467.41015625	29002.982421875	40153.18359375	38460.1328125	21836.9296875	16293.685546875	22876.994140625	19625.525390625	6401.43603515625	19180.408203125	18039.01171875	49870.828125	6571.7626953125	14134.2978515625	25338.67578125	30745.951171875	39068.51171875	39288.5234375	17458.63671875	22072.494140625	18589.626953125	26576.78125	16666.490234375	56713.57421875	105.29132080078125	5877.19580078125	33061.59765625	17989.1640625	6014.18798828125	9488.3876953125	37473.921875	22238.09765625	46236.73828125	41406.578125	19597.375	30606.04296875	39193.83984375	33808.21875	31962.5546875	38368.37890625	36536.83984375	37471.76953125	39181.859375	33403.10546875	20712.71875	43570.3828125	38831.078125	30292.6171875	39526.66015625	54067.8125	42993.2890625	30418.107421875	40163.60546875	40245.6953125	31744.033203125	44646.69140625	38774.3828125	41239.31640625	29830.814453125	39206.08984375	40268.796875	24687.8125	43979.7109375	27085.685546875	38120.66015625	29676.98046875	41295.6875	45056.16796875	18500.3125	28248.642578125	38842.84375	30866.529296875	34554.78515625	41905.64453125	34853.37109375	35772.37109375	36570.6640625	31756.97265625	18374.328125	40805.28515625	33490.55859375	31199.5234375	40401.4921875	55383.16015625	42909.2265625	37347.640625	41102.78515625	40899.16796875	28705.4375	41798.5546875	39911.203125	40628.8515625	29859.623046875	38735.44921875	46920.80859375	24205.80078125	56600.0703125	24339.462890625
360	480	7296.0908203125	15139.37109375	23633.515625	27945.9453125	35548.78125	34171.84375	19540.38671875	16080.51953125	21419.513671875	19488.5703125	3127.685302734375	21669.580078125	17843.0234375	34152.2265625	6870.6376953125	13459.609375	23393.025390625	28428.681640625	35872.8671875	34617.30859375	18641.0546875	19880.9453125	19703.732421875	25601.052734375	17420.009765625	45807.9140625	-99.34691619873047	6285.7568359375	29536.078125	17564.4140625	3254.34423828125	8841.3779296875	33796.92578125	20598.783203125	41713.265625	37165.66015625	20518.30859375	28836.607421875	35671.85546875	31087.119140625	29006.794921875	34211.015625	33087.5625	33465.79296875	35536.44921875	30869.712890625	19739.9453125	39550.1328125	33140.640625	29426.98828125	35859.18359375	45988.65625	38126.6015625	28401.984375	37196.66796875	36430.21875	26994.57421875	40027.57421875	36089.25	38640.859375	28181.833984375	35181.44921875	38718.1953125	23363.44140625	42128.5859375	25761.7890625	35635.75	29468.646484375	38390.21484375	39082.35546875	21241.296875	25712.328125	36678.03125	29649.396484375	34199.8359375	39035.00390625	31589.779296875	33296.40234375	33513.265625	30233.482421875	19046.267578125	38928.02734375	32829.82421875	30169.07421875	36578.28515625	48352.87890625	39542.81640625	36467.55078125	37002.55859375	36899.32421875	26302.8125	37987.92578125	36412.3125	38432.84375	28120.71875	34803.57421875	42525.26171875	20859.77734375	47221.3203125	23824.134765625
480	600	7520.814453125	14480.357421875	21014.376953125	25193.091796875	29922.140625	31029.75390625	18885.09375	15817.5478515625	17301.357421875	20252.751953125	1075.0626220703125	21896.255859375	18998.703125	26958.765625	7154.22509765625	12883.7861328125	21073.306640625	26262.97265625	31838.8359375	30078.298828125	18878.5390625	18192.638671875	20673.259765625	23379.0546875	17377.447265625	38395.52734375	-188.4324493408203	6447.15185546875	23774.853515625	16270.9931640625	1476.29248046875	8203.6611328125	30621.10546875	22773.3515625	34986.44921875	32558.037109375	19022.763671875	25618.03125	31222.41015625	28552.41796875	27156.646484375	28964.4453125	28458.654296875	28839.427734375	31735.265625	26512.8125	21077.15625	35266.453125	28983.943359375	28726.654296875	29776.7421875	37206.2734375	32983.84765625	28136.5	32780.08984375	30569.109375	23181.13671875	35256.9140625	31328.341796875	35162.17578125	24658.71875	31396.849609375	33262.0078125	23015.728515625	35804.22265625	24733.50390625	28965.263671875	26875.189453125	32731.083984375	34443.33203125	19626.998046875	23852.92578125	32559.060546875	26952.43359375	30819.546875	34312.06640625	27945.830078125	28502.931640625	30046.578125	27467.6015625	18408.5078125	34212.50390625	26862.259765625	27626.00390625	31803.474609375	39143.3515625	34581.22265625	30901.947265625	33137.11328125	32960.77734375	24355.400390625	33369.36328125	31655.826171875	34750.2265625	25028.59375	31111.98046875	35555.16015625	18400.9453125	39993.328125	22005.5546875
600	900	8168.60498046875	13990.900390625	18022.560546875	22703.482421875	25007.900390625	25619.5234375	18172.255859375	15017.806640625	15633.533203125	19088.791015625	-410.05224609375	21211.888671875	17921.794921875	21595.0625	7821.14306640625	13245.361328125	17933.880859375	23306.580078125	25870.03125	25362.48828125	18618.2421875	15596.03515625	19479.72265625	21332.287109375	16852.25390625	24039.240234375	-333.7222900390625	6777.62060546875	21581.51953125	15733.77734375	1012.6727294921875	7949.8193359375	25268.611328125	19544.75	29237.537109375	27483.638671875	18141.71875	22474.87890625	25483.830078125	24324.46875	23311.515625	24263.396484375	25137.595703125	24153.611328125	27505.376953125	22834.76953125	17890.8046875	30212.296875	23808.40625	23191.119140625	25067.732421875	30007.74609375	26692.5	21635.025390625	26801.306640625	26187.912109375	20630.927734375	28950.873046875	26204.701171875	29540.396484375	21796.5859375	25771.365234375	29988.333984375	21989.787109375	28993.162109375	22280.775390625	24566.259765625	22837.076171875	27003.509765625	27736.044921875	18293.609375	20901.5390625	27353.384765625	23541.3359375	24921.169921875	28886.626953125	24061.4375	24050.044921875	26137.490234375	22977.490234375	18140.07421875	28565.666015625	22958.38671875	23235.7578125	26379.4375	31066.154296875	28833.64453125	27203.2421875	26996.01171875	27014.177734375	19908.255859375	27940.208984375	26512.451171875	29004.58984375	21938.55078125	25872.029296875	31900.58984375	18147.392578125	31791.70703125	19773.73828125
900	1200	8900.41015625	13829.935546875	14767.2958984375	19279.6484375	19108.998046875	19678.29296875	18238.673828125	13794.041015625	13295.013671875	17685.982421875	-789.9263305664062	14416.751953125	15870.03515625	15192.6923828125	8603.0791015625	13077.9541015625	14781.19921875	19495.359375	19992.220703125	20110.466796875	17549.06640625	12712.9638671875	17727.119140625	19390.365234375	16017.12890625	20067.109375	-630.9188232421875	7154.09326171875	17874.90625	14714.30078125	903.854736328125	7666.00390625	20928.529296875	17820.484375	23465.7265625	22586.15625	16237.3359375	19622.96484375	20770.232421875	20221.693359375	19434.755859375	19406.1875	20451.26171875	20591.380859375	22797.88671875	19241.2734375	15083.2890625	24483.814453125	19654.18359375	18056.1953125	20170.408203125	22536.76171875	21760.2734375	18448.30859375	21369.44921875	20870.4609375	17234.12890625	23911.642578125	21374.916015625	23921.734375	18482.291015625	21231.6953125	25808.0703125	19544.248046875	23462.94140625	18881.5	21104.919921875	18230.328125	22088.1484375	22627.662109375	16845.291015625	18246.31640625	22351.3984375	19559.47265625	21044.6015625	23602.0546875	19984.365234375	20750.048828125	20993.361328125	19040.865234375	15211.4580078125	22193.3046875	18591.00390625	19175.71875	20885.2890625	24764.06640625	23446.484375	22126.76953125	21805.4140625	21952.716796875	16554.3515625	23212.08203125	21418.318359375	23870.2890625	18202.421875	21204.609375	26432.869140625	16066.2646484375	26031.578125	17036.515625
1200	1500	9264.7451171875	13283.4462890625	12290.3701171875	16803.052734375	15133.939453125	16217.4609375	16240.861328125	12133.681640625	11602.810546875	16043.162109375	-1110.45654296875	11033.2373046875	15115.9697265625	15161.2919921875	8995.255859375	13089.9521484375	12281.5537109375	16830.345703125	17605.091796875	15932.48828125	17212.01953125	11282.064453125	15875.9638671875	13456.4296875	15335.1923828125	13631.291015625	-845.6204223632812	7431.9970703125	15170.755859375	13911.775390625	761.1485595703125	7481.322265625	17634.587890625	14614.4248046875	19566.61328125	19838.552734375	14717.6025390625	17611.970703125	17566.4921875	17709.48828125	16232.2216796875	16047.6943359375	17998.71484375	17779.8359375	19516.759765625	16414.55859375	14341.8330078125	20346.86328125	16552.8515625	15975.484375	17434.7578125	19414.234375	17382.677734375	16215.9501953125	17759.640625	17975.599609375	15643.8994140625	20427.228515625	18254.65234375	20215.791015625	16136.6025390625	17957.82421875	22861.462890625	18678.099609375	20209.037109375	17174.587890625	17450.58203125	16504.275390625	18716.396484375	19545.59765625	14851.068359375	16072.6083984375	19056.876953125	17181.29296875	18158.185546875	20232.978515625	16940.076171875	17366.705078125	18307.296875	16515.353515625	14620.1015625	19203.060546875	16214.2978515625	16647.408203125	17974.630859375	20494.859375	19477.203125	18516.625	18444.916015625	18707.763671875	14957.4814453125	20036.4765625	18389.36328125	20352.9375	16119.3388671875	18056.76171875	24565.451171875	14596.501953125	20981.185546875	14978.7080078125
1500	1800	9428.91796875	12831.2548828125	10396.8125	14120.62109375	11531.0634765625	14020.4609375	14505.7802734375	11301.7158203125	10461.330078125	13770.2041015625	-697.220947265625	9163.7958984375	13826.55859375	10843.0810546875	9126.2373046875	12355.232421875	10561.1533203125	13838.4443359375	13739.6796875	13433.544921875	14852.4833984375	9595.005859375	13991.4052734375	8672.28125	13797.7783203125	15733.7587890625	-887.0676879882812	7570.14697265625	12942.73828125	12708.5517578125	878.5715942382812	7211.916015625	15768.5234375	13658.3359375	17294.025390625	17084.0234375	13065.4638671875	16018.7939453125	15366.328125	15776.130859375	15034.3583984375	13825.6884765625	15548.7548828125	16269.501953125	17160.984375	13623.6044921875	12964.396484375	17366.775390625	15038.3974609375	14305.794921875	15692.279296875	16500.693359375	15631.9853515625	14975.35546875	14685.87890625	15963.6787109375	13179.125	17918.3359375	15739.7158203125	17437.36328125	14353.197265625	15156.6396484375	20160.6484375	17244.482421875	17786.98828125	14747.0732421875	15368.2529296875	14541.103515625	16171.1943359375	18297.12890625	12667.7373046875	14928.806640625	17005.40625	14915.2763671875	16178.791015625	17539.87890625	15602.10546875	15841.3876953125	16510.77734375	14478.2626953125	12282.6455078125	17009.619140625	14495.701171875	14229.0703125	15542.4912109375	18374.51953125	17199.09765625	15120.23046875	15955.033203125	15970.0966796875	11800.912109375	17680.701171875	16274.8759765625	17183.8046875	14127.8017578125	15788.60546875	19732.955078125	12771.392578125	18536.515625	13685.5107421875
1800	2100	9320.0595703125	12177.1103515625	8848.7841796875	12522.013671875	10737.1708984375	11538.40234375	13891.3896484375	10057.00390625	9152.7734375	11149.451171875	-906.72314453125	5801.283203125	12520.15234375	16483.8515625	9189.212890625	11932.2724609375	8906.4912109375	11846.310546875	10863.8466796875	10050.37890625	15970.1494140625	8227.5244140625	12823.6826171875	10944.58203125	11956.71875	11383.3798828125	-878.1402587890625	7452.62353515625	11606.4453125	11618.0419921875	1248.712158203125	6872.681640625	13482.40234375	11990.501953125	15674.6201171875	14703.41796875	11584.1240234375	14613.0576171875	13849.404296875	14162.9296875	13014.4482421875	12396.1015625	14102.0478515625	14719.98046875	15586.62109375	12645.4189453125	10353.353515625	15316.697265625	12777.42578125	12012.5595703125	14008.029296875	15602.1796875	13162.8076171875	13056.546875	13201.3984375	14165.0625	12250.9921875	16075.958984375	13901.2490234375	15241.3876953125	12397.8271484375	13289.3095703125	19315.6484375	15572.615234375	15626.5458984375	14202.5458984375	12346.4189453125	13612.810546875	13983.0380859375	14830.404296875	10668.9892578125	13353.390625	14697.583984375	13371.6337890625	14855.3671875	15515.46875	13882.8310546875	14205.236328125	14304.1103515625	12706.76171875	11136.03125	14071.6298828125	12997.830078125	12743.0595703125	13985.384765625	16169.806640625	14498.5927734375	13061.0966796875	14114.646484375	14810.58203125	10098.4296875	15753.3896484375	14266.22265625	14829.9736328125	12559.89453125	13893.8154296875	17466.859375	12344.1318359375	15223.5087890625	12638.869140625
2100	2400	9233.9736328125	11297.986328125	7541.94287109375	10900.111328125	8326.3203125	9694.291015625	11463.79296875	8520.3642578125	7736.501953125	10503.5087890625	-509.9070739746094	5601.05126953125	11278.4951171875	7227.80078125	9066.375	11029.1630859375	7749.0244140625	10359.095703125	8941.330078125	9945.82421875	12043.0849609375	7379.2421875	12015.1337890625	6618.5888671875	11051.2998046875	10346.193359375	-895.6764526367188	7443.52783203125	9712.3623046875	11133.2861328125	1446.5582275390625	6579.69140625	12016.3125	11877.380859375	14119.0732421875	13142.822265625	10792.697265625	13958.962890625	12038.7041015625	13154.49609375	13665.4052734375	10979.8994140625	13063.5	13965.896484375	14518.791015625	11560.693359375	11167.4716796875	13579.96484375	11983.037109375	11747.45703125	12820.22265625	12683.07421875	11273.14453125	10836.763671875	11484.16796875	12348.6669921875	10097.001953125	14615.9775390625	12409.9248046875	13124.142578125	11906.4873046875	12453.6611328125	17767.91796875	12345.37109375	14912.7314453125	12550.7060546875	12692.8525390625	11272.19921875	12375.2607421875	13714.2119140625	9282.9287109375	12405.966796875	13531.17578125	12269.3017578125	12317.9775390625	13873.5400390625	12317.083984375	13735.859375	13268.7255859375	11394.4892578125	9232.2333984375	11993.099609375	11303.2587890625	11536.1015625	12356.16796875	14464.5556640625	12963.046875	12672.2431640625	12277.8564453125	12577.7861328125	9806.9130859375	14415.0751953125	12703.02734375	13127.740234375	11527.1572265625	12598.3349609375	18035.599609375	11151.119140625	14484.6552734375	10892.431640625
2400	2700	9084.345703125	10300.181640625	6691.04443359375	8908.3291015625	7352.14794921875	8423.3564453125	10328.302734375	7467.68310546875	6674.8173828125	10029.046875	109.31600952148438	3442.2197265625	10050.8828125	3039.294189453125	8922.7373046875	10099.1689453125	6692.59228515625	9131.3505859375	8127.43505859375	8187.2255859375	10130.7119140625	5920.28076171875	10450.4697265625	4506.4482421875	10976.57421875	7099.11279296875	-973.023681640625	7474.5244140625	8968.92578125	9881.8984375	1677.091796875	6250.8056640625	10666.3515625	9423.8896484375	12800.7001953125	11958.0126953125	8567.8212890625	13286.1953125	11136.51171875	11718.328125	11894.2265625	9203.845703125	11442.8798828125	13381.4404296875	12664.5546875	10350.654296875	8431.6337890625	11092.9169921875	11611.1513671875	12063.759765625	11858.9794921875	12191.2158203125	10666.8173828125	10121.5244140625	10236.6484375	11251.490234375	9008.6240234375	13143.3759765625	11132.04296875	11349.51171875	9937.435546875	11026.6787109375	16417.81640625	12392.375	13277.1142578125	11450.4580078125	11316.59375	11037.767578125	10885.1142578125	11898.0361328125	8816.6689453125	12171.0439453125	11963.341796875	11039.009765625	12602.775390625	12600.548828125	11854.392578125	12497.0263671875	12337.99609375	10654.029296875	7622.21142578125	10811.908203125	11906.5166015625	10524.09375	11125.0947265625	14028.90234375	11155.9365234375	11234.9716796875	10706.8037109375	11673.0830078125	7280.21484375	13092.80078125	11471.7783203125	11489.794921875	10060.1630859375	11629.693359375	15457.361328125	8982.13671875	17032.052734375	10291.3359375
