frame_start	frame_end	Left-Cerebral-White-Matter	Left-Cerebellum-White-Matter	Left-Cerebellum-Cortex	Left-Thalamus	Left-Caudate	Left-Putamen	Left-Pallidum	Brain-Stem	Left-Hippocampus	Left-Amygdala	CSF	Left-Accumbens-area	Left-VentralDC	Left-choroid-plexus	Right-Cerebral-White-Matter	Right-Cerebellum-White-Matter	Right-Cerebellum-Cortex	Right-Thalamus	Right-Caudate	Right-Putamen	Right-Pallidum	Right-Hippocampus	Right-Amygdala	Right-Accumbens-area	Right-VentralDC	Right-choroid-plexus	AirCavity	Skull	Vermis	Pons	CSF-ExtraCerebral	Head-ExtraCerebral	ctx-lh-bankssts	ctx-lh-caudalanteriorcingulate	ctx-lh-caudalmiddlefrontal	ctx-lh-cuneus	ctx-lh-entorhinal	ctx-lh-fusiform	ctx-lh-inferiorparietal	ctx-lh-inferiortemporal	ctx-lh-isthmuscingulate	ctx-lh-lateraloccipital	ctx-lh-lateralorbitofrontal	ctx-lh-lingual	ctx-lh-medialorbitofrontal	ctx-lh-middletemporal	ctx-lh-parahippocampal	ctx-lh-paracentral	ctx-lh-parsopercularis	ctx-lh-parsorbitalis	ctx-lh-parstriangularis	ctx-lh-pericalcarine	ctx-lh-postcentral	ctx-lh-posteriorcingulate	ctx-lh-precentral	ctx-lh-precuneus	ctx-lh-rostralanteriorcingulate	ctx-lh-rostralmiddlefrontal	ctx-lh-superiorfrontal	ctx-lh-superiorparietal	ctx-lh-superiortemporal	ctx-lh-supramarginal	ctx-lh-frontalpole	ctx-lh-temporalpole	ctx-lh-transversetemporal	ctx-lh-insula	ctx-rh-bankssts	ctx-rh-caudalanteriorcingulate	ctx-rh-caudalmiddlefrontal	ctx-rh-cuneus	ctx-rh-entorhinal	ctx-rh-fusiform	ctx-rh-inferiorparietal	ctx-rh-inferiortemporal	ctx-rh-isthmuscingulate	ctx-rh-lateraloccipital	ctx-rh-lateralorbitofrontal	ctx-rh-lingual	ctx-rh-medialorbitofrontal	ctx-rh-middletemporal	ctx-rh-parahippocampal	ctx-rh-paracentral	ctx-rh-parsopercularis	ctx-rh-parsorbitalis	ctx-rh-parstriangularis	ctx-rh-pericalcarine	ctx-rh-postcentral	ctx-rh-posteriorcingulate	ctx-rh-precentral	ctx-rh-precuneus	ctx-rh-rostralanteriorcingulate	ctx-rh-rostralmiddlefrontal	ctx-rh-superiorfrontal	ctx-rh-superiorparietal	ctx-rh-superiortemporal	ctx-rh-supramarginal	ctx-rh-frontalpole	ctx-rh-temporalpole	ctx-rh-transversetemporal	ctx-rh-insula
0	30	14.584815979003906	7.5905561447143555	11.744758605957031	22.62418556213379	5.497013568878174	18.208114624023438	3.359560966491699	13.654752731323242	5.966601371765137	2.4822661876678467	9.27131462097168	109.55159759521484	1.382213830947876	22.54511260986328	13.485532760620117	5.691683292388916	12.893523216247559	6.524083137512207	7.234539985656738	10.470934867858887	1.4435755014419556	12.715897560119629	1.2242507934570312	0.6796216368675232	2.5126869678497314	9.053925514221191	9.722540855407715	12.278299331665039	7.2747931480407715	26.493938446044922	13.99194622039795	11.020553588867188	13.238059997558594	18.17290687561035	4.648374080657959	24.48906135559082	9.88538932800293	11.776089668273926	11.935495376586914	23.658153533935547	27.055871963500977	11.986800193786621	10.922614097595215	8.5663480758667	10.591890335083008	6.574620723724365	30.1906681060791	30.67823028564453	5.659979343414307	34.64201354980469	21.91545295715332	24.393096923828125	4.9627275466918945	27.625146865844727	9.7476167678833	33.13173294067383	11.295652389526367	11.563505172729492	11.557103157043457	14.8781156539917	15.013341903686523	13.382464408874512	0.6595529317855835	7.125604629516602	10.53862476348877	24.308265686035156	3.858870029449463	13.045438766479492	10.922667503356934	17.116165161132812	11.945237159729004	21.914012908935547	7.356029033660889	15.647542953491211	9.163705825805664	15.342811584472656	27.794784545898438	7.434057712554932	27.630613327026367	23.317859649658203	29.02336883544922	12.923425674438477	12.93051815032959	8.335797309875488	15.277243614196777	12.088805198669434	20.883394241333008	36.68453598022461	13.483187675476074	12.663758277893066	2.4699559211730957	12.453274726867676	13.451685905456543	9.2722749710083	11.366495132446289	11.078364372253418	6.267777919769287	14.047358512878418	27.375812530517578	33.04270553588867
30	60	594.5594482421875	452.10845947265625	608.7485961914062	748.1508178710938	624.6426391601562	781.9342651367188	544.58251953125	539.9830932617188	930.447509765625	721.69580078125	520.618896484375	595.5885620117188	775.9214477539062	658.9195556640625	587.8480224609375	442.1180114746094	605.6918334960938	817.927734375	691.2775268554688	713.5615844726562	449.1658630371094	781.5781860351562	814.803955078125	882.0689086914062	850.3148193359375	526.6847534179688	237.83030700683594	309.32415771484375	525.5756225585938	605.9369506835938	820.205810546875	150.2596435546875	742.90380859375	718.3714599609375	759.3572998046875	961.88818359375	290.86993408203125	846.4525146484375	825.9111938476562	569.3048706054688	940.9030151367188	663.1193237304688	784.4130859375	972.1882934570312	671.1281127929688	521.2413330078125	529.665283203125	1114.631103515625	1045.6463623046875	450.88623046875	793.956298828125	899.074462890625	747.8836059570312	856.7098388671875	781.8440551757812	898.0352172851562	793.790283203125	745.377685546875	854.8431396484375	777.8148803710938	667.2042236328125	808.2744750976562	646.3990478515625	447.7073059082031	843.3207397460938	985.6531372070312	858.4812622070312	806.7259521484375	908.7245483398438	1048.534423828125	371.6854553222656	722.3712158203125	762.9002075195312	618.9019165039062	876.468505859375	716.9526977539062	650.5431518554688	936.7933349609375	821.38818359375	494.5163879394531	657.3065185546875	903.2343139648438	918.4284057617188	497.08685302734375	865.0463256835938	824.5220947265625	822.8655395507812	843.625732421875	747.7026977539062	903.414306640625	984.209716796875	798.062255859375	899.866943359375	704.9696655273438	726.8054809570312	908.7374877929688	557.9990844726562	466.2314147949219	923.7692260742188	916.0498657226562
60	90	4370.02734375	4147.6748046875	5212.46484375	5683.66455078125	6302.56103515625	6640.80419921875	4515.46142578125	4689.2998046875	5835.61572265625	6005.13037109375	4165.6005859375	8188.18115234375	5592.1416015625	4940.47216796875	4403.75244140625	4184.9375	5294.1494140625	5449.1376953125	4792.283203125	6639.5546875	4586.35986328125	5384.03955078125	3822.196533203125	5409.6162109375	5518.38525390625	4952.05419921875	1506.940673828125	1973.2803955078125	4773.2744140625	4799.21630859375	5510.78466796875	988.3876953125	5429.310546875	4771.77490234375	5721.21484375	7214.5009765625	4356.16357421875	5477.185546875	5488.2802734375	5007.193359375	4980.20849609375	5220.2978515625	4880.53173828125	6290.646484375	5805.79541015625	4402.73095703125	4762.94140625	6092.75634765625	6826.72607421875	3981.475830078125	5521.015625	6724.71044921875	5442.36083984375	5761.22998046875	5408.02880859375	6423.44921875	5760.55615234375	5565.58447265625	5728.5859375	5008.30029296875	5073.818359375	5815.775390625	4769.23876953125	4087.366943359375	5417.8212890625	6777.38232421875	5562.19482421875	4884.2841796875	6341.04736328125	7262.72021484375	4313.7490234375	5420.5693359375	5398.46484375	4792.396484375	5533.70654296875	5222.40283203125	5019.4306640625	6028.0244140625	5740.60546875	4675.0185546875	4643.2236328125	6353.05810546875	6856.4150390625	4495.09716796875	6038.708984375	6616.67919921875	5689.32568359375	5926.59375	5428.34033203125	6327.671875	6775.82763671875	5623.3671875	5922.15087890625	5110.16357421875	5411.984375	5838.54736328125	4030.534912109375	3310.432373046875	6845.78271484375	6844.1240234375
90	120	16113.1181640625	15731.310546875	19934.322265625	22275.216796875	19657.34765625	26189.53125	15363.525390625	17047.345703125	19870.08203125	16200.3330078125	15754.5771484375	22301.923828125	18984.322265625	18333.666015625	15944.25390625	15146.2548828125	19944.6953125	21250.525390625	20187.408203125	25205.326171875	15685.1142578125	18363.43359375	17760.970703125	21775.71875	17445.326171875	20014.234375	5584.5498046875	6843.32861328125	20973.12109375	17315.19140625	19899.416015625	3337.464599609375	20416.287109375	17364.31640625	21806.794921875	26958.8203125	15874.5869140625	21181.2578125	20394.80859375	18653.91796875	19830.083984375	19575.24609375	18498.16015625	23482.736328125	21766.966796875	17753.40234375	17918.037109375	22260.9609375	22946.693359375	14532.8525390625	20158.455078125	25383.078125	20818.189453125	20244.96484375	20238.59765625	23287.765625	23375.564453125	20652.509765625	21200.615234375	19513.275390625	18636.623046875	20842.912109375	16754.666015625	15398.0419921875	21254.15234375	22514.18359375	21383.0078125	18993.775390625	23539.654296875	27465.54296875	13532.0126953125	20360.509765625	19939.037109375	18011.794921875	20049.185546875	19760.515625	19213.4296875	21928.5703125	21058.076171875	18338.955078125	16833.998046875	22999.25	23825.666015625	17574.296875	21711.35546875	24187.388671875	21330.53515625	20210.03515625	20400.322265625	23375.06640625	24030.939453125	21410.95703125	22415.689453125	19188.57421875	19174.98046875	21568.90234375	17212.404296875	13035.9658203125	22081.1640625	22477.798828125
120	150	21842.05078125	22109.37890625	28135.98828125	29451.78125	29367.421875	34771.875	20904.216796875	22911.341796875	23281.796875	22136.3984375	21097.447265625	30611.984375	22699.9453125	22425.962890625	21763.453125	21201.302734375	27842.068359375	28739.1015625	28414.26171875	35689.5390625	22981.96484375	23510.943359375	20570.482421875	29684.177734375	23141.111328125	26945.73046875	6920.82958984375	8196.208984375	29101.01953125	23211.43359375	25684.1328125	4130.185546875	25917.19921875	23815.939453125	29763.353515625	34464.58203125	21407.154296875	27576.607421875	27839.39453125	26670.03125	24962.810546875	24952.681640625	25338.701171875	29789.650390625	28065.853515625	24081.26953125	23772.26171875	30244.373046875	30031.189453125	18765.9140625	27156.59765625	34378.97265625	28395.41796875	25505.70703125	27723.197265625	31970.21484375	29776.962890625	28273.818359375	28655.990234375	26585.87109375	25467.296875	27984.884765625	20776.97265625	20537.96875	29363.27734375	28560.294921875	28913.81640625	23445.12890625	32112.17578125	35289.89453125	21744.58203125	27170.58984375	27205.076171875	24589.859375	25677.236328125	25912.4140625	26691.015625	29027.787109375	26383.595703125	24790.759765625	22762.109375	31030.169921875	31084.68359375	22834.40625	29084.8828125	32930.32421875	28802.79296875	27995.35546875	27681.37890625	32341.24609375	28675.041015625	29539.52734375	29705.802734375	26854.0625	25524.072265625	28323.19140625	20415.544921875	19211.185546875	29060.09765625	28400.716796875
150	180	23505.615234375	24141.90234375	30252.865234375	31817.9296875	32009.435546875	39397.73828125	24386.638671875	25342.166015625	25658.80078125	26897.38671875	22431.3203125	32701.626953125	23344.4765625	26621.599609375	23411.431640625	22622.251953125	29759.38671875	31847.095703125	31086.65625	38371.875	24701.3203125	25321.953125	20912.779296875	30316.666015625	23171.91796875	27155.439453125	7192.056640625	8443.26171875	31770.0	24458.513671875	27138.66015625	4348.19677734375	29035.85546875	26599.20703125	31805.216796875	37058.29296875	24812.955078125	29075.837890625	29968.59375	27959.80859375	25620.453125	26397.552734375	26442.8203125	31368.904296875	30489.65234375	26047.916015625	24786.78125	32420.23046875	31848.94921875	19814.326171875	28930.9921875	37911.53125	30790.771484375	27460.322265625	29814.595703125	34643.73828125	31657.353515625	30377.5546875	31029.28515625	28966.228515625	26535.533203125	30419.958984375	20500.71484375	23184.642578125	31426.587890625	29365.201171875	30089.16796875	26040.697265625	34683.99609375	38141.10546875	22488.7578125	29516.470703125	29991.802734375	26445.1328125	26396.361328125	27493.251953125	28897.962890625	30766.068359375	29495.451171875	27010.8359375	23519.396484375	33555.98828125	33257.8515625	23818.9453125	31374.525390625	34775.421875	31048.111328125	29748.818359375	30166.44140625	34405.9140625	32826.3125	31437.802734375	32251.599609375	29667.537109375	27378.494140625	31438.302734375	21366.197265625	21843.380859375	30388.56640625	29698.83984375
180	240	24263.919921875	24994.705078125	31350.73828125	33506.23828125	32400.837890625	38300.8046875	25190.162109375	25389.548828125	25390.837890625	25371.517578125	23118.6796875	33550.05078125	25062.3828125	25257.27734375	24090.22265625	23283.55859375	30861.341796875	32118.73828125	32794.36328125	38968.46875	26287.650390625	25767.13671875	24930.943359375	34788.5	24684.9296875	28461.15625	7385.04248046875	8630.1181640625	32818.69140625	25023.794921875	27381.419921875	4519.7646484375	29277.033203125	25447.59765625	32373.169921875	36950.61328125	28274.625	29522.36328125	30583.060546875	29323.494140625	26395.376953125	26911.060546875	26894.2109375	32082.966796875	31023.009765625	26850.396484375	25780.091796875	32908.68359375	32336.458984375	20491.404296875	29854.74609375	36716.6171875	31001.08984375	28678.453125	30282.283203125	34576.28125	31500.755859375	30692.638671875	31388.103515625	29556.900390625	27135.228515625	30622.625	21462.38671875	22421.0	30250.806640625	30692.099609375	32414.37109375	26143.888671875	34140.55078125	37643.34765625	23972.78125	29073.92578125	30613.40234375	27676.279296875	26414.48828125	28566.060546875	28443.5859375	30691.810546875	30001.134765625	28120.83203125	25402.904296875	33667.51953125	33784.671875	24750.80078125	32077.59765625	35619.17578125	31025.455078125	30109.62109375	30593.27734375	34631.47265625	32487.59375	31751.712890625	32698.818359375	29880.462890625	28626.349609375	31872.251953125	22456.556640625	19658.876953125	31072.388671875	31120.123046875
240	300	23633.3359375	24264.2734375	30867.755859375	32404.8359375	31265.162109375	38797.6640625	25899.8515625	24902.67578125	25458.1796875	26088.033203125	22225.88671875	31896.365234375	24519.037109375	24951.267578125	23626.951171875	22798.455078125	30082.208984375	32752.771484375	31945.70703125	38069.359375	25943.671875	25338.0859375	22883.48046875	31225.677734375	25050.978515625	28778.404296875	7154.55712890625	8460.5869140625	31546.5546875	23719.029296875	26350.34375	4636.6689453125	28719.677734375	25401.98046875	30887.658203125	35336.171875	27208.05859375	28133.404296875	29948.1328125	28339.33984375	25331.7578125	25983.0078125	25939.091796875	30836.53515625	30565.7421875	26650.9453125	25033.98828125	31502.765625	31013.734375	20012.5	28304.609375	34882.28125	30244.89453125	27548.943359375	29466.03515625	33215.42578125	31516.046875	29783.83984375	30246.7890625	28738.798828125	26872.736328125	29668.8984375	20069.080078125	22220.744140625	29704.357421875	29607.05078125	31258.455078125	24770.060546875	32988.62109375	35927.27734375	23258.869140625	29168.560546875	29694.607421875	27145.97265625	24843.701171875	27528.068359375	27156.62890625	30105.75	28913.021484375	27277.67578125	23761.083984375	33282.53125	31612.970703125	23432.873046875	30844.93359375	34017.53125	29988.83984375	29156.291015625	29494.951171875	33104.5546875	32302.54296875	30479.9375	31570.517578125	29221.294921875	27832.60546875	30591.625	21238.037109375	20270.447265625	29524.30859375	29633.220703125
300	360	22575.07421875	23716.228515625	28764.02734375	32025.0546875	29751.607421875	35663.1015625	24605.06640625	23511.869140625	23936.5390625	23736.158203125	21007.203125	32862.5859375	22149.185546875	23728.3671875	22643.69921875	21882.462890625	28167.81640625	31452.611328125	30378.884765625	36476.24609375	26612.90234375	24176.486328125	21809.203125	32461.63671875	23214.38671875	26446.76953125	7049.34716796875	8228.0732421875	28816.4375	22589.220703125	24546.52734375	4725.27392578125	27184.236328125	23832.888671875	29383.67578125	31746.33203125	23668.96875	27584.4765625	28184.01953125	26956.224609375	23634.724609375	24624.8515625	23594.900390625	29322.74609375	28092.044921875	25347.154296875	24650.775390625	28886.771484375	29161.83203125	18428.380859375	25971.560546875	32448.341796875	28042.5546875	25597.294921875	27676.103515625	31015.595703125	28986.125	27895.470703125	28276.220703125	27077.947265625	25702.81640625	27903.72265625	18737.01953125	21983.953125	28340.83984375	28503.65625	29972.2734375	23952.310546875	31129.017578125	33391.1171875	24249.50390625	27122.7109375	28242.751953125	25741.333984375	23627.37109375	26123.66796875	25532.23828125	28106.5703125	27075.341796875	26017.962890625	23238.92578125	29989.3046875	30054.375	21303.572265625	28827.109375	31266.482421875	28204.900390625	26861.5546875	27989.041015625	30529.6015625	29956.86328125	28241.294921875	29671.748046875	27600.63671875	26600.767578125	28486.537109375	19154.736328125	21009.06640625	28424.53515625	28436.265625
360	480	20838.39453125	21379.265625	26103.966796875	29726.1484375	26478.447265625	32200.298828125	24153.298828125	22064.056640625	20063.451171875	22814.259765625	18667.517578125	26847.033203125	21924.8203125	21339.34765625	20823.333984375	20641.361328125	25217.91796875	28976.9140625	26618.0	32669.54296875	25068.47265625	22994.708984375	19668.453125	28082.107421875	22185.341796875	23932.275390625	6888.7568359375	7653.27978515625	25764.517578125	21066.16015625	21751.19921875	4741.81298828125	24367.703125	23188.615234375	26219.689453125	27603.927734375	24066.892578125	24487.71875	25202.978515625	24384.90234375	21356.66015625	21551.771484375	23048.81640625	25501.875	24655.166015625	23221.541015625	22245.978515625	26934.099609375	26946.796875	19109.1640625	24012.34375	27476.12890625	25322.53515625	24035.05078125	25122.24609375	27592.9921875	26399.375	24910.4921875	25565.119140625	24456.578125	23663.318359375	25063.77734375	18253.435546875	21256.603515625	25767.123046875	26505.265625	25862.234375	23098.3671875	27279.169921875	28911.53125	21909.427734375	24722.455078125	24967.181640625	23372.28125	21692.021484375	22402.833984375	23805.47265625	24810.42578125	24512.419921875	23185.7421875	21329.208984375	26780.666015625	26911.67578125	21532.525390625	25773.255859375	26813.263671875	25463.611328125	24486.5078125	25263.423828125	27395.83203125	26780.24609375	25491.5078125	26597.26171875	24562.548828125	23546.3046875	25561.255859375	19438.037109375	20488.33984375	23983.990234375	25852.546875
480	600	18593.412109375	19402.595703125	22413.3515625	26800.001953125	23294.193359375	28134.87890625	22115.7578125	20037.330078125	18972.1640625	20699.322265625	16038.8701171875	22743.5	20234.88671875	18316.490234375	18476.65625	18655.599609375	21995.828125	26716.19140625	22836.2890625	28973.6640625	21913.076171875	20059.091796875	18453.15234375	26638.39453125	20370.470703125	19935.189453125	6475.40283203125	7212.134765625	22113.8515625	19105.673828125	18563.84765625	4858.27490234375	21653.62109375	20385.923828125	23074.55078125	22914.4296875	21629.494140625	21254.552734375	21850.267578125	21661.607421875	18423.005859375	18791.056640625	20560.2109375	21728.78515625	22046.658203125	20162.2890625	19598.779296875	22673.349609375	22723.646484375	16575.560546875	21351.810546875	22798.6171875	21915.96484375	20903.501953125	21862.333984375	23297.69921875	22379.9453125	21583.900390625	22175.8125	21294.703125	20672.857421875	21637.30859375	18210.7734375	20002.79296875	22346.693359375	23189.109375	22552.68359375	20528.646484375	24037.494140625	23576.650390625	20444.7109375	21173.50390625	21755.71484375	20434.49609375	19256.5078125	19537.5234375	21343.23046875	21062.228515625	22310.765625	20736.916015625	18808.939453125	23374.0390625	23383.318359375	19407.75390625	22069.46484375	22490.7578125	21947.53125	22098.869140625	21956.189453125	23335.744140625	23523.005859375	22147.341796875	23146.439453125	21203.380859375	20730.201171875	22084.001953125	17620.083984375	18780.611328125	21518.970703125	23134.560546875
600	900	16288.140625	17718.73046875	18568.232421875	22765.142578125	18811.396484375	22943.703125	19961.873046875	17861.46484375	16201.353515625	19114.75390625	13299.615234375	20963.197265625	18322.51953125	14581.4326171875	16250.5791015625	17347.74609375	18143.970703125	23338.373046875	18464.9921875	22936.021484375	20786.990234375	17514.255859375	16984.796875	20817.64453125	18573.35546875	16731.640625	6402.328125	6824.55126953125	18399.38671875	17119.95703125	15046.466796875	5134.6357421875	18565.2890625	17777.4921875	19054.77734375	18472.46484375	19135.99609375	18162.8125	17968.33203125	18312.30859375	15783.14453125	15391.9189453125	17327.677734375	17860.84765625	18714.6796875	17148.162109375	16787.09375	18453.537109375	19036.0859375	14092.4599609375	17883.130859375	18433.802734375	17949.19921875	18044.794921875	18370.587890625	18801.958984375	19010.744140625	17956.72265625	18558.8515625	17475.814453125	17654.154296875	17827.962890625	14682.29296875	17533.328125	18784.201171875	19898.552734375	18403.693359375	17555.3984375	19442.79296875	19214.9140625	17792.994140625	18001.447265625	17961.896484375	17825.099609375	15838.5419921875	16655.1640625	18281.236328125	17479.859375	18594.328125	17697.146484375	16856.84375	18335.935546875	18939.6171875	16261.43359375	18145.546875	18220.1796875	17822.486328125	18829.958984375	18306.392578125	18991.48046875	19873.724609375	18284.1640625	19084.0625	17652.708984375	17878.23828125	18380.44140625	15325.4189453125	17115.404296875	18211.283203125	19900.087890625
900	1200	14400.720703125	15513.6962890625	14733.861328125	18808.453125	15225.0703125	18346.19921875	17310.826171875	15224.3212890625	13573.7958984375	15258.1142578125	11226.0478515625	17249.109375	16202.275390625	12508.2802734375	14350.5673828125	15616.234375	14383.5947265625	19429.1640625	14734.640625	18697.4375	17453.349609375	14591.9287109375	13884.07421875	17073.958984375	15948.666015625	14425.4443359375	6352.38427734375	6640.5546875	14765.72265625	15743.2919921875	12234.826171875	5465.33837890625	15473.435546875	15609.28125	15538.626953125	14977.0703125	15714.5400390625	15432.4609375	14818.2470703125	15435.16015625	13449.8896484375	13129.8359375	14569.8671875	14833.6708984375	15785.380859375	14606.44921875	14045.30859375	14736.869140625	15683.607421875	12102.0244140625	14677.1396484375	15710.7177734375	14720.216796875	15310.5947265625	15160.83203125	15365.8544921875	16230.2333984375	14809.5107421875	15278.3916015625	14519.7626953125	15069.244140625	14497.5517578125	12867.4189453125	15871.2568359375	16427.03125	16707.517578125	15403.544921875	15518.4697265625	15861.630859375	15793.55078125	14841.7890625	15021.41015625	14518.1455078125	14957.0751953125	13745.0283203125	14080.826171875	15416.703125	14591.1884765625	16073.283203125	14750.8603515625	13909.734375	14995.296875	15577.908203125	12820.041015625	15095.1796875	15302.3154296875	14580.6611328125	15802.4853515625	15103.8974609375	15461.3427734375	16489.412109375	14919.666015625	15601.1875	14660.76171875	14706.5048828125	14886.7998046875	12466.1083984375	14881.2587890625	14986.287109375	16825.337890625
1200	1500	13188.12109375	14176.55078125	12370.931640625	15703.4658203125	13186.50390625	15290.5830078125	16012.9716796875	13857.6787109375	11904.65625	14129.4482421875	9583.94921875	13605.6943359375	14411.4404296875	10820.4091796875	13171.365234375	14035.2451171875	12051.4384765625	15881.8095703125	12716.666015625	15480.763671875	15694.470703125	12436.505859375	12777.5087890625	13718.2724609375	14473.4716796875	11944.5126953125	6301.1337890625	6554.65966796875	12325.900390625	14215.521484375	10482.837890625	5821.30419921875	13641.392578125	13646.7080078125	13580.609375	12932.2626953125	13889.4921875	13533.177734375	12863.6376953125	13609.8974609375	11984.14453125	11710.0068359375	13055.65625	13143.0185546875	14111.669921875	13227.91015625	12700.8720703125	12614.76171875	13838.173828125	10990.1640625	13200.15625	13667.22265625	12887.0908203125	13881.87890625	13285.724609375	13192.822265625	14048.916015625	13019.005859375	13334.4072265625	12793.6982421875	13436.5517578125	12588.44921875	10920.060546875	14646.765625	14563.490234375	14618.6357421875	13278.2294921875	13677.50390625	13672.916015625	13874.765625	13269.4560546875	13143.412109375	12642.251953125	13222.01171875	12325.5	12620.2646484375	13457.67578125	12949.2939453125	14345.330078125	13147.1875	12034.74609375	12925.4248046875	13491.2705078125	12145.7646484375	13297.6396484375	13446.814453125	12549.80859375	14191.1015625	13057.4560546875	13436.466796875	14317.3359375	13072.26171875	13666.1455078125	12610.236328125	12910.2734375	12853.3447265625	11505.1650390625	13310.35546875	13750.759765625	14734.6572265625
1500	1800	12097.3232421875	12883.765625	10516.5947265625	13249.806640625	10634.666015625	13453.2568359375	13850.6396484375	12087.31640625	10228.2412109375	12207.80859375	8519.2939453125	11770.779296875	13144.98046875	9577.9501953125	12121.373046875	12720.5283203125	10139.265625	13739.9912109375	10888.12109375	13146.1669921875	13884.765625	10784.5703125	11742.044921875	12574.0380859375	12767.478515625	10297.845703125	6096.41259765625	6332.6572265625	10567.90234375	12868.2197265625	9168.0498046875	5937.97900390625	12072.2548828125	12247.3095703125	12053.8994140625	11216.0458984375	12309.71484375	12088.927734375	11328.1220703125	12166.3056640625	10784.2119140625	10653.861328125	11844.259765625	11707.9111328125	12532.79296875	11806.1650390625	11056.0634765625	10878.1328125	12371.19921875	10139.4951171875	11927.98828125	12218.59765625	11464.662109375	12266.32421875	11822.673828125	11522.72265625	12361.025390625	11741.8466796875	11756.7060546875	11221.505859375	12000.341796875	11289.724609375	10237.8291015625	13288.8466796875	12798.099609375	12923.6142578125	11725.62109375	12282.5693359375	12034.0380859375	12122.95703125	12195.6806640625	11815.5556640625	11042.86328125	11834.5927734375	11051.7958984375	11227.537109375	12160.486328125	11457.3779296875	12820.017578125	11450.1005859375	11071.4267578125	11190.3916015625	11942.5966796875	10663.9423828125	11707.7529296875	12108.1669921875	10915.490234375	12410.1591796875	11324.7626953125	11743.3056640625	12402.6962890625	11510.6787109375	12002.890625	11185.4736328125	11428.087890625	11147.57421875	10258.947265625	12087.3994140625	12096.671875	12712.3642578125
1800	2100	11173.962890625	11305.689453125	8957.5849609375	10996.3935546875	9649.943359375	11923.96484375	12991.1591796875	10809.076171875	9197.5302734375	10790.99609375	7707.81201171875	10613.8359375	11564.3623046875	8202.65625	11210.814453125	11540.6572265625	8776.8251953125	11437.994140625	9444.115234375	11909.7587890625	12537.943359375	9540.55859375	10708.1640625	10565.1171875	11237.412109375	9997.1416015625	5916.3095703125	6202.759765625	8818.0087890625	11536.408203125	8208.6162109375	6010.95849609375	11369.1513671875	10834.111328125	10995.8271484375	10254.1328125	11185.82421875	11007.990234375	10136.833984375	11259.412109375	9781.5234375	9808.9248046875	10872.96484375	10525.3818359375	11475.6650390625	10629.1220703125	9782.109375	9469.3994140625	11311.201171875	9903.931640625	10974.4365234375	11320.181640625	10238.6376953125	10758.27734375	10519.5439453125	10421.4375	11051.41796875	10646.7216796875	10563.3154296875	9832.5888671875	11193.384765625	10062.634765625	9523.5390625	11710.0859375	11386.5498046875	11559.927734375	10803.884765625	11207.3994140625	10891.240234375	10933.3701171875	10851.890625	10779.939453125	9816.2783203125	10598.05078125	10119.30859375	10179.2353515625	10927.6279296875	10662.1904296875	11718.2998046875	10430.970703125	9911.0390625	10024.1884765625	10809.0615234375	9441.482421875	10539.1572265625	11221.318359375	9649.40625	11282.8876953125	10213.033203125	10503.6494140625	11206.4208984375	10507.71875	10698.345703125	9902.3369140625	10178.4013671875	10005.548828125	9155.166015625	12381.1376953125	11011.423828125	11511.8095703125
2100	2400	10461.423828125	10132.9091796875	8023.59423828125	9549.0576171875	8105.63525390625	10397.91796875	11857.6572265625	9780.0498046875	8608.6142578125	9832.9794921875	6952.3876953125	8629.2763671875	9975.689453125	7906.73193359375	10455.98828125	10470.4111328125	7624.85888671875	10172.861328125	8366.4423828125	10053.84765625	11026.4052734375	8290.404296875	9780.92578125	8806.9130859375	10145.5302734375	8747.1630859375	5784.26318359375	6060.80224609375	8222.6298828125	10966.6416015625	7537.46240234375	6013.056640625	9983.89453125	10293.7568359375	9835.314453125	9464.2421875	10684.380859375	9872.6572265625	9323.4541015625	10157.9580078125	8893.0556640625	8946.98828125	9836.8017578125	9588.6328125	10387.978515625	9872.888671875	8742.9169921875	8677.259765625	10418.3173828125	8912.5380859375	10025.193359375	10356.7705078125	9406.958984375	10156.55078125	9665.0322265625	9279.7744140625	10324.068359375	9727.822265625	9638.9404296875	8922.5849609375	10066.9296875	9227.578125	8796.25	10778.28125	10746.5654296875	10501.439453125	9650.4765625	10097.5576171875	9849.7880859375	10127.109375	9283.994140625	9767.69921875	9002.4619140625	9751.6162109375	8687.880859375	9398.5810546875	10300.4443359375	9578.978515625	10518.2021484375	9437.6923828125	9061.9501953125	9044.068359375	10093.8447265625	8757.828125	9653.767578125	10222.486328125	8881.259765625	10343.5927734375	9374.162109375	9623.1298828125	9935.95703125	9586.10546875	9713.3671875	9039.26171875	9364.484375	8955.0302734375	8855.15234375	10043.17578125	9901.943359375	10433.48046875
