frame_start	frame_end	Left-Cerebral-White-Matter	Left-Cerebellum-White-Matter	Left-Cerebellum-Cortex	Left-Thalamus	Left-Caudate	Left-Putamen	Left-Pallidum	Brain-Stem	Left-Hippocampus	Left-Amygdala	CSF	Left-Accumbens-area	Left-VentralDC	Left-choroid-plexus	Right-Cerebral-White-Matter	Right-Cerebellum-White-Matter	Right-Cerebellum-Cortex	Right-Thalamus	Right-Caudate	Right-Putamen	Right-Pallidum	Right-Hippocampus	Right-Amygdala	Right-Accumbens-area	Right-VentralDC	Right-choroid-plexus	AirCavity	Skull	Vermis	Pons	CSF-ExtraCerebral	Head-ExtraCerebral	ctx-lh-bankssts	ctx-lh-caudalanteriorcingulate	ctx-lh-caudalmiddlefrontal	ctx-lh-cuneus	ctx-lh-entorhinal	ctx-lh-fusiform	ctx-lh-inferiorparietal	ctx-lh-inferiortemporal	ctx-lh-isthmuscingulate	ctx-lh-lateraloccipital	ctx-lh-lateralorbitofrontal	ctx-lh-lingual	ctx-lh-medialorbitofrontal	ctx-lh-middletemporal	ctx-lh-parahippocampal	ctx-lh-paracentral	ctx-lh-parsopercularis	ctx-lh-parsorbitalis	ctx-lh-parstriangularis	ctx-lh-pericalcarine	ctx-lh-postcentral	ctx-lh-posteriorcingulate	ctx-lh-precentral	ctx-lh-precuneus	ctx-lh-rostralanteriorcingulate	ctx-lh-rostralmiddlefrontal	ctx-lh-superiorfrontal	ctx-lh-superiorparietal	ctx-lh-superiortemporal	ctx-lh-supramarginal	ctx-lh-frontalpole	ctx-lh-temporalpole	ctx-lh-transversetemporal	ctx-lh-insula	ctx-rh-bankssts	ctx-rh-caudalanteriorcingulate	ctx-rh-caudalmiddlefrontal	ctx-rh-cuneus	ctx-rh-entorhinal	ctx-rh-fusiform	ctx-rh-inferiorparietal	ctx-rh-inferiortemporal	ctx-rh-isthmuscingulate	ctx-rh-lateraloccipital	ctx-rh-lateralorbitofrontal	ctx-rh-lingual	ctx-rh-medialorbitofrontal	ctx-rh-middletemporal	ctx-rh-parahippocampal	ctx-rh-paracentral	ctx-rh-parsopercularis	ctx-rh-parsorbitalis	ctx-rh-parstriangularis	ctx-rh-pericalcarine	ctx-rh-postcentral	ctx-rh-posteriorcingulate	ctx-rh-precentral	ctx-rh-precuneus	ctx-rh-rostralanteriorcingulate	ctx-rh-rostralmiddlefrontal	ctx-rh-superiorfrontal	ctx-rh-superiorparietal	ctx-rh-superiortemporal	ctx-rh-supramarginal	ctx-rh-frontalpole	ctx-rh-temporalpole	ctx-rh-transversetemporal	ctx-rh-insula
0	30	112.73439025878906	78.84547424316406	118.29254913330078	170.03541564941406	249.4899139404297	472.2428283691406	-99.39278411865234	236.6906280517578	246.3614501953125	-628.8222045898438	209.42913818359375	315.96551513671875	76.45287322998047	-2072.275634765625	155.427734375	15.52021312713623	96.1647720336914	167.18316650390625	298.0787658691406	169.6744384765625	-25.143505096435547	467.17156982421875	-271.36761474609375	2398.82470703125	99.50802612304688	925.2901611328125	0.6713763475418091	107.57453918457031	281.0352478027344	-53.975894927978516	275.6486511230469	13.649764060974121	107.32582092285156	107.26828002929688	482.17608642578125	235.7671661376953	569.9808959960938	334.5843200683594	320.0892639160156	-37.676395416259766	49.39225387573242	107.0166244506836	341.7751159667969	116.58690643310547	524.6504516601562	23.5546817779541	499.8876953125	434.77423095703125	201.3310089111328	47.18801498413086	263.1252746582031	482.8962097167969	321.27587890625	258.3539123535156	402.03338623046875	606.1776733398438	235.16436767578125	337.3778381347656	435.1416320800781	268.5174865722656	303.84051513671875	251.56236267089844	227.4110870361328	1022.14794921875	402.1351013183594	280.34259033203125	232.12416076660156	-190.1647186279297	300.6663818359375	350.97991943359375	1832.38134765625	40.067195892333984	126.16796112060547	40.523406982421875	0.12618665397167206	183.85179138183594	245.59327697753906	168.27349853515625	255.1787872314453	-98.8304443359375	-86.2523193359375	652.955322265625	335.1356201171875	-196.8463592529297	337.934326171875	279.7869873046875	333.76922607421875	-29.76751708984375	280.03692626953125	232.95315551757812	20.599945068359375	204.438720703125	306.20770263671875	212.9320526123047	109.07432556152344	402.81011962890625	362.6273193359375	58.96281433105469	399.7991943359375	668.1001586914062
30	60	3000.36767578125	2510.940185546875	7488.4169921875	8405.259765625	8594.4228515625	11924.2568359375	182.65374755859375	5192.6513671875	11105.3388671875	7176.314453125	8097.130859375	9672.9609375	3319.71337890625	-35246.28515625	3404.946533203125	2021.181884765625	7939.74951171875	7604.20166015625	10848.4951171875	11764.55859375	1338.9605712890625	8590.560546875	-52.9766960144043	18580.521484375	7135.7705078125	22332.80078125	1135.39404296875	3170.71337890625	13688.6015625	6072.82568359375	7560.10107421875	750.5166015625	5776.44921875	1102.602783203125	10869.76171875	16048.0576171875	10647.6279296875	11953.927734375	8476.6630859375	7561.33251953125	9554.1767578125	6933.681640625	10941.6630859375	10769.6591796875	10907.8994140625	8239.2333984375	7248.8720703125	10416.8076171875	11472.30078125	2279.229248046875	12219.2939453125	14964.40234375	11561.0439453125	8185.7861328125	8300.546875	13557.4150390625	13737.0703125	9792.578125	10740.8544921875	7436.6669921875	10369.1875	9788.90625	17644.810546875	16236.048828125	5116.40283203125	9448.1572265625	7982.21044921875	1326.6376953125	9165.875	12213.8193359375	11658.6513671875	8613.8671875	7832.60009765625	8564.0712890625	7779.78955078125	9657.837890625	12288.8720703125	9646.380859375	8321.4833984375	4306.9033203125	-530.368896484375	10165.314453125	10435.0302734375	82.07011413574219	8955.76953125	12397.4609375	10125.7197265625	8077.89453125	7858.1083984375	11155.1630859375	3296.060791015625	9435.4072265625	8785.2783203125	6721.9765625	9040.86328125	9630.6591796875	3847.272705078125	8544.02734375	5492.228515625	8879.904296875
60	90	7992.13916015625	9198.201171875	21519.283203125	22209.279296875	28300.18359375	33803.30078125	2358.813720703125	14167.2109375	25198.15625	13079.5712890625	19937.466796875	22392.685546875	7920.1083984375	-40156.6953125	9129.4755859375	8126.99755859375	22393.556640625	19935.099609375	30733.384765625	31358.279296875	3956.682861328125	18869.5	13568.7099609375	14334.2626953125	11936.7021484375	66060.671875	2559.098388671875	7409.18701171875	35097.72265625	19036.2578125	19148.14453125	2093.0	15869.1435546875	4672.97314453125	30433.431640625	36535.33984375	17083.794921875	33995.61328125	22620.671875	25095.2890625	21902.8125	17623.44140625	27044.916015625	27151.57421875	26562.19921875	24551.107421875	16726.97265625	29406.646484375	32463.75390625	6500.76708984375	34316.97265625	39448.62890625	31816.060546875	18161.611328125	24413.318359375	33574.26171875	33103.83984375	27994.75390625	27992.185546875	22078.349609375	27844.09375	26098.921875	43978.5859375	32414.84765625	9646.185546875	21558.841796875	21977.728515625	-2462.784423828125	24799.4921875	32149.060546875	15006.6640625	24855.30859375	21917.033203125	23412.076171875	18625.724609375	24206.837890625	28314.576171875	26522.826171875	27008.576171875	16770.83203125	7404.2978515625	26462.740234375	29033.390625	3132.606201171875	23339.263671875	30654.912109375	29540.734375	20134.263671875	21597.0078125	30673.515625	6084.873046875	26446.91796875	25931.78515625	20431.208984375	23444.95703125	25573.884765625	9330.45703125	26605.158203125	19628.193359375	16940.546875
90	120	13348.435546875	12058.2958984375	36612.87109375	39309.96875	52130.76953125	55613.83203125	4806.67431640625	21217.076171875	36293.04296875	30657.447265625	31015.3125	-1187.19580078125	16420.873046875	-48958.52734375	15466.3017578125	11319.9912109375	37703.015625	34701.3515625	48445.38671875	50856.5	9392.4833984375	29953.345703125	27522.55078125	23036.955078125	16952.84765625	73031.9453125	3429.583984375	11619.16796875	51379.66015625	33748.60546875	30819.91796875	3391.555419921875	26304.19921875	3883.10302734375	52123.69140625	62596.9609375	24472.431640625	58411.51953125	37980.2578125	38362.48828125	38717.46484375	29390.044921875	42318.375	44448.82421875	48123.7890625	42941.15234375	36039.9375	53393.76953125	52545.40625	10877.0654296875	56884.99609375	68294.1171875	54261.59375	28976.384765625	38579.32421875	54359.875	55280.31640625	47741.88671875	47277.69140625	37787.9453125	45929.56640625	44088.15625	69247.671875	55834.3359375	14144.0390625	37388.74609375	34181.26171875	-480.63470458984375	42297.61328125	53976.66796875	-3104.297119140625	43820.453125	38040.2109375	35259.56640625	33426.89453125	37892.17578125	45344.68359375	42533.09765625	41498.7578125	31029.90234375	9052.3232421875	43001.78125	49955.19140625	4358.5556640625	40592.89453125	54197.94921875	46819.453125	32664.81640625	35584.5859375	48232.48828125	9797.234375	45850.0390625	42267.1640625	34092.265625	38639.1953125	41704.35546875	21108.90234375	40094.28515625	25893.259765625	30923.59375
120	150	17545.626953125	12302.263671875	49793.04296875	50917.91796875	74193.546875	70400.4296875	10292.8212890625	31697.7265625	42895.8125	44902.84375	39327.15234375	-34488.375	17301.896484375	-105831.8515625	19950.10546875	14232.9755859375	50453.17578125	48101.140625	66854.3828125	73134.984375	2434.397705078125	46575.8515625	30651.490234375	15471.474609375	20250.61328125	110153.0625	5277.302734375	14769.5458984375	82349.390625	44251.2421875	39388.50390625	4522.87890625	33499.015625	7888.005859375	69384.34375	77347.0546875	24012.7734375	78350.7734375	50377.25390625	51750.5625	50416.5234375	39866.66015625	52619.3125	59070.02734375	63088.17578125	56951.59375	44774.08984375	68269.3671875	66219.59375	13444.70703125	75407.375	87490.5625	70293.515625	40052.78125	53884.9140625	72615.671875	66524.328125	62221.2578125	60257.40625	49659.76171875	60813.16015625	60628.8671875	95450.7734375	62275.94140625	21370.537109375	47288.66015625	48955.21484375	647.8365478515625	54890.23828125	71906.3984375	-15426.681640625	59485.9375	50231.49609375	44440.44140625	32568.53515625	47899.98828125	58525.66015625	52138.55859375	53469.30078125	40463.19140625	9006.7216796875	58204.05859375	61137.3671875	6811.90576171875	53002.08984375	76604.59375	62907.01953125	34925.09765625	48151.015625	64354.49609375	9365.607421875	60878.38671875	57098.89453125	46596.49609375	53917.42578125	53900.08984375	27902.15625	51330.51171875	36686.84765625	33719.0
150	180	19193.37890625	11555.6552734375	53021.61328125	53299.01171875	77518.25	69318.875	15597.099609375	31906.98046875	35908.99609375	48688.0390625	38538.70703125	-37044.7265625	15127.416015625	13823.515625	21651.34375	14089.0068359375	53557.00390625	49403.17578125	72554.8046875	68176.5234375	8163.71044921875	41011.4453125	46307.65234375	2919.0126953125	19152.263671875	140021.109375	4884.70556640625	14690.8525390625	98627.078125	45280.1171875	40542.59375	5217.9541015625	37419.52734375	-2381.23193359375	70393.1796875	76843.15625	10169.02734375	80481.4375	53802.21875	56618.05859375	51503.171875	41839.75	52043.5859375	61918.2421875	63474.7734375	59483.94140625	48886.7109375	76650.6328125	69918.4765625	15983.1259765625	77257.8984375	87957.0625	73583.1640625	37060.4375	53218.59375	72297.8984375	68187.734375	66623.1640625	63496.8828125	52144.68359375	63460.85546875	60190.859375	93628.0	70297.625	22932.505859375	54986.39453125	47676.44921875	1907.742919921875	58813.23046875	76667.75	-29231.5390625	64896.7734375	53129.6875	43380.578125	33101.63671875	45677.1328125	57163.515625	54671.60546875	55053.41015625	45511.19140625	21001.828125	60466.61328125	60705.62890625	7923.2900390625	55676.52734375	73268.1953125	65806.859375	38925.40234375	51221.90625	67553.7421875	4384.029296875	63692.2109375	59750.80078125	49292.328125	55983.75	55980.98046875	26981.423828125	52205.08984375	29416.845703125	41179.87890625
180	240	18391.25	11229.041015625	52154.98828125	54525.125	76412.28125	73864.7734375	9184.681640625	32208.498046875	41204.24609375	49285.96484375	35788.15234375	-49898.55859375	16587.6171875	-71614.265625	21205.8984375	15268.2822265625	52845.28125	49804.17578125	72254.3671875	67950.1328125	12471.140625	49473.234375	38895.4609375	-7628.09423828125	20194.36328125	116572.625	4900.79931640625	14114.298828125	86943.2734375	44683.5390625	37349.44921875	5365.072265625	36143.59765625	7080.13623046875	69598.7421875	73851.6171875	18269.9296875	78608.4765625	53249.17578125	55660.3515625	51957.7578125	39945.8125	50738.875	59914.34765625	62674.40234375	60479.16796875	48835.13671875	71696.5625	68744.9375	18039.146484375	75056.9921875	86283.4609375	71363.9765625	34996.4453125	54983.17578125	68762.984375	71329.2265625	66183.6640625	62772.0234375	51674.2421875	63285.83984375	59884.5859375	87068.8125	69384.75	17688.78125	50594.6484375	47610.06640625	2861.46728515625	58493.61328125	69815.09375	-30202.822265625	63963.46484375	51584.12109375	41251.9375	33048.984375	44313.65625	56484.1953125	53265.9921875	55681.546875	47270.45703125	14441.1943359375	56792.18359375	62195.9453125	9918.0283203125	51597.1171875	67863.3359375	64069.25	38012.66796875	49961.0859375	66385.1171875	9298.6630859375	62842.24609375	57649.7890625	49910.765625	55270.796875	55793.59375	30944.84375	52065.7421875	35427.4375	39776.15625
240	300	17594.55078125	10445.2998046875	48852.24609375	51354.6640625	71551.390625	67145.984375	11834.072265625	31455.62890625	33292.53515625	49333.51171875	31258.50390625	-32506.44140625	16941.375	-34586.9296875	20127.337890625	13595.580078125	49312.3359375	48562.01171875	70704.4375	64687.0390625	8042.861328125	47266.7734375	43393.95703125	-12003.326171875	19083.974609375	103588.8671875	5051.451171875	13152.9169921875	74454.828125	43450.79296875	32641.494140625	5511.3388671875	37001.78125	9534.396484375	63367.74609375	62031.0078125	25368.173828125	72985.421875	48827.140625	53451.59375	45120.62890625	36469.25	48046.4765625	54756.20703125	58527.01171875	56037.18359375	49309.1328125	64154.484375	62685.9375	13875.6708984375	69693.3984375	77424.6171875	66036.5859375	34203.94921875	49796.42578125	64018.80078125	66783.8125	61702.79296875	58232.3671875	47126.515625	59664.81640625	53825.34375	82765.7734375	67280.3671875	20045.16015625	50757.2734375	46649.10546875	8695.4033203125	53878.60546875	61088.94921875	-20721.990234375	59430.3984375	48551.58984375	39365.73828125	26497.2421875	42151.67578125	52749.12109375	48839.25	51305.6796875	44686.7734375	15002.03125	51996.328125	57116.171875	11586.3544921875	49148.921875	63335.3125	58343.58984375	34364.65625	45912.93359375	58264.171875	13645.072265625	57743.703125	54190.890625	46090.05859375	54986.984375	51248.5703125	32644.595703125	53428.140625	23382.2421875	40358.69140625
300	360	16581.890625	9067.01953125	45401.83203125	50892.72265625	69311.4765625	64688.4453125	13754.765625	30077.927734375	28468.78125	52460.90234375	27498.68359375	-38241.27734375	18091.443359375	-42026.2109375	19104.537109375	13331.494140625	45366.2734375	46748.3046875	64240.328125	58363.25	13368.6796875	42153.421875	45343.55078125	6157.57275390625	17416.7109375	87019.7421875	5609.74560546875	12266.5224609375	66570.0	38189.640625	27816.90625	5709.30419921875	34286.2421875	15504.9375	58026.71484375	54791.921875	26667.25390625	66634.9609375	43621.28125	48906.90625	42189.1796875	32499.4609375	44022.203125	48093.83984375	53791.609375	52346.25390625	50174.70703125	58419.4921875	58268.86328125	16769.890625	60815.5078125	66173.2265625	60467.44140625	35359.08984375	46617.48828125	55489.2578125	61155.08203125	55669.875	53566.0703125	43551.88671875	56444.21484375	49986.06640625	69718.515625	66039.390625	19383.9375	48048.66796875	41334.4453125	6957.0419921875	48713.9140625	55691.34375	-22053.755859375	55656.52734375	44357.09765625	37015.5234375	26501.279296875	36806.0625	48133.96875	44310.48046875	49143.453125	42231.2734375	14869.763671875	47288.34375	50590.50390625	13421.572265625	45569.0078125	52949.57421875	53025.44921875	30765.80859375	42921.39453125	51168.15234375	15846.548828125	53122.09375	50018.671875	41566.55078125	49254.9140625	46347.0625	28758.431640625	50962.01171875	26208.54296875	39266.5078125
360	480	15772.1611328125	10308.8544921875	40404.1796875	46278.6640625	58197.7265625	52552.4453125	19032.48046875	29246.556640625	22377.96484375	51715.41015625	20215.583984375	-20564.9140625	19479.9765625	-29899.744140625	17375.66796875	11834.5302734375	40471.19921875	44293.0234375	56314.3359375	50534.21875	14239.8427734375	39454.18359375	46651.18359375	23163.47265625	17635.962890625	71568.6640625	5907.6748046875	11017.287109375	42842.86328125	33892.828125	21833.689453125	5925.9013671875	32670.212890625	18676.484375	49824.60546875	43905.38671875	35401.1171875	54371.8203125	36185.99609375	45284.1640625	36059.1015625	27905.658203125	39446.0625	42208.59375	46611.55859375	44698.01953125	47644.4765625	47625.640625	50850.046875	15616.3369140625	51214.55859375	54092.47265625	49700.765625	29540.009765625	41720.5546875	46117.18359375	49833.875	48218.51953125	46476.87890625	36408.234375	49744.2109375	41754.30078125	57565.87109375	64047.8828125	21307.625	47311.19140625	40498.1875	14016.6005859375	41024.5	44598.2109375	-3477.484375	45967.59765625	37119.1953125	35494.671875	26927.580078125	31126.7109375	42754.8125	38891.375	42718.1015625	38875.06640625	16223.130859375	41728.50390625	43084.16796875	16468.630859375	39637.09765625	44212.65625	44933.37109375	29977.404296875	39188.56640625	43165.44921875	19789.970703125	45719.921875	44606.89453125	36546.23046875	44948.140625	39474.33984375	25409.10546875	48485.890625	28104.4453125	36720.15234375
480	600	14842.7705078125	11470.12890625	33670.453125	40282.40625	50080.66796875	43574.24609375	19276.798828125	27293.07421875	15778.2421875	55258.25390625	15127.615234375	-1011.2103881835938	21952.482421875	9228.1865234375	16035.3994140625	11879.087890625	34505.73828125	40216.08984375	47171.19140625	40520.69921875	15830.685546875	35359.3046875	42944.12109375	30469.181640625	16374.8359375	49030.37890625	6197.2373046875	9835.19140625	30873.14453125	30223.763671875	16364.7822265625	6221.59814453125	28422.365234375	17407.5859375	41809.4453125	33857.91015625	36069.6953125	43574.2890625	28762.5078125	37672.6640625	27666.865234375	22496.6328125	31643.19921875	35300.6953125	37431.6171875	37339.2421875	42909.76953125	37596.90625	40249.0078125	14398.2734375	40915.359375	39339.1953125	39092.79296875	24244.251953125	34620.1875	37401.03515625	43178.8359375	39962.43359375	38019.37890625	29280.72265625	41442.18359375	33086.640625	45130.65625	61072.22265625	20700.017578125	41822.359375	32103.37890625	17220.203125	33690.984375	35013.703125	5221.63232421875	37012.17578125	30728.21875	29495.544921875	22750.73828125	25956.001953125	35893.40625	30524.580078125	34228.58984375	34629.37109375	20097.986328125	31942.34375	35544.359375	13893.90625	32578.3125	32333.26171875	35820.59765625	27914.505859375	32920.4140625	34094.125	18462.037109375	38088.6953125	37350.33203125	30131.62890625	37916.26171875	31562.138671875	17624.419921875	45461.98046875	21114.373046875	34287.625
600	900	14300.28515625	12855.5263671875	27084.580078125	33549.16015625	38328.06640625	31439.685546875	23991.888671875	24387.33203125	8600.8251953125	44712.12890625	9295.759765625	346.98431396484375	21727.486328125	64736.8828125	14963.4345703125	12877.1220703125	27405.94921875	33792.63671875	34974.85546875	31286.525390625	18552.58203125	29109.857421875	38266.18359375	25115.994140625	16849.16015625	31962.7734375	6449.77294921875	8833.0751953125	20506.162109375	25904.896484375	10400.6123046875	6719.8134765625	23262.060546875	19943.576171875	32146.5859375	25383.544921875	30808.595703125	31538.986328125	21346.779296875	29224.501953125	22356.78515625	16462.97265625	24462.634765625	26556.78515625	28415.57421875	29000.328125	35473.6328125	25945.001953125	31271.064453125	10939.5625	30301.67578125	26647.171875	28418.099609375	22940.046875	26779.97265625	27459.208984375	32577.26953125	30748.0546875	29618.12890625	21600.3828125	32578.283203125	25054.70703125	30462.009765625	49438.4921875	20327.41015625	36563.9921875	26656.345703125	17039.8203125	26976.908203125	25045.3046875	6699.1318359375	28039.119140625	23290.8359375	24345.2578125	19605.701171875	19744.478515625	26812.869140625	23742.216796875	28445.90234375	27457.23828125	16994.5546875	24079.375	27410.45703125	13578.041015625	24231.822265625	23597.720703125	26655.09765625	21610.20703125	26082.31640625	25805.828125	21444.31640625	29613.98046875	29437.515625	23440.466796875	30360.6640625	23735.2734375	11547.5400390625	37059.1328125	20390.46484375	29584.61328125
900	1200	14444.5791015625	14131.5927734375	22174.162109375	27404.75390625	28454.828125	23645.380859375	23041.955078125	21498.8515625	5627.998046875	33772.6796875	4837.41552734375	3897.593017578125	21718.197265625	65225.56640625	14569.5048828125	15114.9423828125	21778.580078125	28205.716796875	25880.666015625	22878.462890625	21211.294921875	24731.41015625	32497.470703125	21999.501953125	16207.5869140625	24818.998046875	6678.74560546875	8113.01513671875	8381.6123046875	21502.09375	6490.5849609375	7402.59228515625	19176.830078125	17851.724609375	24969.689453125	19733.021484375	28634.087890625	23180.677734375	15434.2099609375	22267.35546875	18020.310546875	11612.7255859375	18844.87109375	20017.046875	21770.099609375	22341.001953125	26730.357421875	17142.322265625	23578.427734375	9658.5107421875	21389.513671875	19114.560546875	19766.39453125	17565.763671875	20977.20703125	20783.55078125	24338.244140625	23965.56640625	22974.607421875	16183.421875	25946.0625	18414.333984375	20632.400390625	39783.30078125	20795.34765625	29306.26171875	19813.5703125	18459.7109375	20969.74609375	19518.443359375	10281.2138671875	20841.53125	17962.154296875	19941.412109375	16949.736328125	15857.6806640625	19752.60546875	18702.93359375	24150.1640625	22617.044921875	12766.8681640625	18498.345703125	21159.310546875	13247.2890625	19720.72265625	17820.232421875	19502.416015625	21709.25	20826.98828125	19240.9765625	19598.189453125	23690.982421875	23727.900390625	18355.79296875	24775.80078125	18463.859375	10773.1484375	31562.669921875	18754.62890625	25409.84375
1200	1500	14667.3525390625	14505.4384765625	19779.025390625	22837.984375	21342.193359375	18753.642578125	24812.97265625	18860.388671875	5850.1728515625	25117.470703125	3448.26513671875	5339.36279296875	21390.08203125	53214.8984375	14597.5595703125	16036.2568359375	18905.375	24293.771484375	20902.662109375	18920.861328125	21102.236328125	20816.814453125	28079.421875	16005.435546875	15830.607421875	18411.583984375	6834.74951171875	7984.75146484375	5075.544921875	21063.142578125	4712.33984375	7883.3251953125	16290.9150390625	15261.8994140625	20633.888671875	16845.982421875	25489.658203125	19352.11328125	12286.7685546875	18013.337890625	15802.3759765625	9243.353515625	14759.654296875	17461.46484375	20290.11328125	18702.32421875	22631.3984375	13927.0927734375	20317.01171875	8578.71875	17870.443359375	16511.625	15736.5009765625	15619.28125	17773.23828125	17842.37890625	19377.248046875	20655.3359375	20231.63671875	13363.7587890625	22247.21484375	15545.7119140625	16048.96484375	34929.1796875	21022.431640625	25443.392578125	16830.138671875	17376.697265625	18948.431640625	16751.93359375	10749.435546875	17721.76171875	15203.126953125	16998.40234375	15511.9208984375	13407.158203125	18143.037109375	16578.822265625	20208.400390625	19722.177734375	10610.748046875	15304.4541015625	19217.36328125	12914.2626953125	16888.142578125	16461.06640625	16300.1220703125	18739.927734375	17620.75390625	16100.6259765625	18996.619140625	20360.357421875	20488.23046875	15672.27734375	20803.765625	15562.923828125	6787.8564453125	26550.1953125	19622.60546875	21001.58984375
1500	1800	14766.9140625	15189.775390625	17221.095703125	19943.548828125	19922.962890625	15054.6142578125	23464.34375	17272.73828125	8183.50244140625	24034.693359375	1810.8951416015625	-3552.3095703125	19539.388671875	41034.8515625	14519.8583984375	15301.828125	17031.123046875	21226.8671875	17204.267578125	14813.1279296875	20782.44140625	20292.20703125	22675.609375	20090.458984375	14803.5361328125	19416.455078125	6641.73046875	7842.04052734375	3853.2529296875	19902.357421875	3580.54296875	8324.61328125	15040.3671875	14069.2568359375	16972.3828125	15116.7919921875	24331.861328125	16588.544921875	10483.115234375	15882.7373046875	13290.5888671875	7823.9404296875	12900.083984375	15517.6083984375	17971.34765625	15464.017578125	18412.568359375	12278.640625	17101.76171875	7660.1279296875	15040.294921875	14571.818359375	12706.1640625	14037.234375	15436.9697265625	15866.255859375	16145.80859375	17898.13671875	16948.25390625	11307.1123046875	18957.513671875	13087.6689453125	12162.751953125	32314.373046875	20217.021484375	21510.6484375	14122.7978515625	18207.998046875	15923.2138671875	13194.751953125	14151.6787109375	14610.9267578125	13459.6357421875	16036.2412109375	14415.0771484375	12334.8193359375	14880.1357421875	15082.8525390625	17656.3671875	17568.880859375	7444.60009765625	13794.1982421875	16470.447265625	12092.619140625	14070.50390625	13463.259765625	14052.0166015625	16741.236328125	15769.669921875	14467.484375	17409.412109375	18532.50390625	17775.30859375	13566.361328125	17720.6953125	13828.3837890625	6181.19677734375	23387.947265625	19798.173828125	19830.642578125
1800	2100	14685.55859375	14348.5234375	15625.056640625	17883.970703125	16714.140625	13433.76953125	20788.439453125	15713.7685546875	5802.98193359375	17164.5	1225.9554443359375	-5373.8310546875	19218.1015625	55641.44140625	14499.142578125	15330.7890625	15034.037109375	18163.60546875	14360.4677734375	12839.5419921875	20932.296875	16636.9375	22509.00390625	12891.291015625	14820.4638671875	11609.7421875	6611.537109375	7756.8720703125	719.9991455078125	18080.865234375	2665.934326171875	8526.607421875	12783.9482421875	16324.4716796875	13950.7705078125	13840.25390625	21365.583984375	14170.9375	8889.92578125	14441.5869140625	12571.673828125	6524.5869140625	11465.056640625	14316.765625	16192.482421875	13698.6875	18907.03515625	10046.1826171875	15088.1865234375	7714.62353515625	12027.912109375	10906.673828125	10764.6025390625	12226.1787109375	12988.6455078125	13961.904296875	15192.4794921875	15234.2568359375	14607.630859375	9356.068359375	17288.61328125	11471.37109375	12083.361328125	26598.6484375	17161.103515625	18698.90234375	13786.1171875	12285.68359375	15125.861328125	12863.3740234375	9569.88671875	13371.416015625	12003.80078125	14291.2001953125	10799.3408203125	10872.1298828125	13092.744140625	14408.1455078125	16531.1875	15925.1640625	7663.8505859375	11906.4091796875	14723.63671875	11992.07421875	12929.90625	11518.556640625	11892.654296875	15212.7177734375	13143.65234375	12502.0185546875	16588.431640625	16162.97265625	15633.5498046875	11824.0810546875	16225.005859375	12012.423828125	3658.193603515625	19353.0546875	15740.38671875	16866.755859375
2100	2400	14272.9423828125	14621.9326171875	13622.138671875	15202.2763671875	13746.115234375	11178.2333984375	18117.962890625	13980.802734375	8691.24609375	16253.8232421875	768.9105224609375	-2007.830810546875	16123.1484375	48569.09375	14112.8056640625	15430.005859375	13252.359375	16647.126953125	11922.0244140625	10618.833984375	18050.603515625	15129.4814453125	17850.26953125	7274.34521484375	14097.6259765625	5993.4404296875	6385.13671875	7531.72314453125	3173.84765625	16699.62890625	2242.658447265625	8692.05859375	11743.74609375	10255.662109375	13154.623046875	11483.900390625	15907.205078125	13165.1337890625	7551.61328125	11464.162109375	10248.6923828125	5265.18359375	9651.5673828125	12675.185546875	14198.6162109375	12043.4501953125	15067.7646484375	8080.45166015625	12920.26953125	6404.73046875	9617.2822265625	10394.5830078125	8696.7275390625	10919.02734375	11469.1650390625	12557.4169921875	12152.392578125	13546.4658203125	13062.935546875	7870.794921875	14873.609375	10015.748046875	7930.623046875	23843.353515625	16878.96875	16977.3828125	11113.517578125	15655.3037109375	12037.3056640625	10839.6884765625	7490.943359375	11036.984375	10498.376953125	12652.400390625	10875.443359375	8950.984375	10204.3193359375	12248.044921875	15061.06640625	13504.2548828125	7430.75146484375	9318.5869140625	12398.4384765625	11265.16015625	10774.96875	10226.978515625	9709.8251953125	12849.4306640625	12290.2509765625	10610.7822265625	15374.794921875	14362.6796875	13214.681640625	10373.2236328125	14246.369140625	10167.5751953125	3409.599853515625	17706.90234375	17260.44921875	15130.4228515625
2400	2700	13830.19140625	13616.716796875	12923.8271484375	13316.16015625	11331.8720703125	9010.23046875	18154.65625	12699.0615234375	5089.11328125	14027.654296875	829.2431030273438	-3455.86328125	15264.3681640625	49897.12890625	13717.3203125	14315.9736328125	12191.5732421875	14471.6962890625	10177.6279296875	9515.6962890625	15420.919921875	14795.0322265625	15229.01953125	8449.140625	12312.1474609375	12661.5234375	6127.03955078125	7269.13623046875	-752.962890625	15406.3232421875	1916.13671875	8715.25390625	10789.6083984375	13972.6552734375	11379.310546875	9666.6240234375	13858.7119140625	11492.6611328125	6470.60400390625	9340.177734375	9650.4501953125	4162.35107421875	8351.921875	11583.9453125	11645.236328125	10653.8388671875	13119.291015625	5567.9609375	11342.4453125	5598.88671875	7478.708984375	8304.1015625	7429.49853515625	11265.033203125	10142.1806640625	11397.205078125	12531.6845703125	11877.126953125	11936.779296875	7313.0693359375	13604.08203125	8683.4306640625	5631.44091796875	19717.130859375	16388.375	15124.576171875	10604.767578125	9769.158203125	10966.328125	9706.005859375	6897.48779296875	9281.951171875	9287.66796875	11102.0126953125	8909.9453125	8366.1611328125	7963.599609375	10819.791015625	13774.953125	12326.5107421875	6694.759765625	8272.3388671875	12083.642578125	9783.220703125	10135.740234375	10321.8310546875	8930.1728515625	12336.154296875	10555.7001953125	9354.5693359375	12934.279296875	13120.6826171875	11841.0859375	9747.12890625	13320.869140625	9200.1708984375	3609.56787109375	14992.78125	11287.515625	13605.8134765625
