frame_start	frame_end	Left-Cerebral-White-Matter	Left-Cerebellum-White-Matter	Left-Cerebellum-Cortex	Left-Thalamus	Left-Caudate	Left-Putamen	Left-Pallidum	Brain-Stem	Left-Hippocampus	Left-Amygdala	CSF	Left-Accumbens-area	Left-VentralDC	Left-choroid-plexus	Right-Cerebral-White-Matter	Right-Cerebellum-White-Matter	Right-Cerebellum-Cortex	Right-Thalamus	Right-Caudate	Right-Putamen	Right-Pallidum	Right-Hippocampus	Right-Amygdala	Right-Accumbens-area	Right-VentralDC	Right-choroid-plexus	AirCavity	Skull	Vermis	Pons	CSF-ExtraCerebral	Head-ExtraCerebral	ctx-lh-bankssts	ctx-lh-caudalanteriorcingulate	ctx-lh-caudalmiddlefrontal	ctx-lh-cuneus	ctx-lh-entorhinal	ctx-lh-fusiform	ctx-lh-inferiorparietal	ctx-lh-inferiortemporal	ctx-lh-isthmuscingulate	ctx-lh-lateraloccipital	ctx-lh-lateralorbitofrontal	ctx-lh-lingual	ctx-lh-medialorbitofrontal	ctx-lh-middletemporal	ctx-lh-parahippocampal	ctx-lh-paracentral	ctx-lh-parsopercularis	ctx-lh-parsorbitalis	ctx-lh-parstriangularis	ctx-lh-pericalcarine	ctx-lh-postcentral	ctx-lh-posteriorcingulate	ctx-lh-precentral	ctx-lh-precuneus	ctx-lh-rostralanteriorcingulate	ctx-lh-rostralmiddlefrontal	ctx-lh-superiorfrontal	ctx-lh-superiorparietal	ctx-lh-superiortemporal	ctx-lh-supramarginal	ctx-lh-frontalpole	ctx-lh-temporalpole	ctx-lh-transversetemporal	ctx-lh-insula	ctx-rh-bankssts	ctx-rh-caudalanteriorcingulate	ctx-rh-caudalmiddlefrontal	ctx-rh-cuneus	ctx-rh-entorhinal	ctx-rh-fusiform	ctx-rh-inferiorparietal	ctx-rh-inferiortemporal	ctx-rh-isthmuscingulate	ctx-rh-lateraloccipital	ctx-rh-lateralorbitofrontal	ctx-rh-lingual	ctx-rh-medialorbitofrontal	ctx-rh-middletemporal	ctx-rh-parahippocampal	ctx-rh-paracentral	ctx-rh-parsopercularis	ctx-rh-parsorbitalis	ctx-rh-parstriangularis	ctx-rh-pericalcarine	ctx-rh-postcentral	ctx-rh-posteriorcingulate	ctx-rh-precentral	ctx-rh-precuneus	ctx-rh-rostralanteriorcingulate	ctx-rh-rostralmiddlefrontal	ctx-rh-superiorfrontal	ctx-rh-superiorparietal	ctx-rh-superiortemporal	ctx-rh-supramarginal	ctx-rh-frontalpole	ctx-rh-temporalpole	ctx-rh-transversetemporal	ctx-rh-insula
0	30	260.22967529296875	537.2642822265625	717.035400390625	763.9240112304688	1154.0345458984375	1305.9033203125	136.21763610839844	1306.7728271484375	1088.7911376953125	1002.30712890625	472.2060241699219	1974.293212890625	766.6552734375	1670.482421875	305.1381530761719	397.5212707519531	806.0150146484375	1177.8375244140625	1408.561279296875	1557.2626953125	1430.9593505859375	1408.2781982421875	206.14212036132812	570.795166015625	990.9658813476562	-597.9129028320312	228.9512481689453	397.6910400390625	392.9454650878906	715.90478515625	592.683349609375	208.7763214111328	1518.252685546875	2316.55126953125	1225.235595703125	1629.641357421875	945.6878051757812	1387.7010498046875	1029.68798828125	1153.41162109375	2221.932861328125	709.6130981445312	1370.6666259765625	1359.7899169921875	2305.796875	564.4708862304688	1559.5692138671875	1131.6505126953125	1310.3681640625	1533.3082275390625	1123.69091796875	2170.4775390625	1365.53955078125	2280.982666015625	1025.3958740234375	933.9727783203125	1916.6304931640625	1334.7891845703125	1303.408935546875	978.6766357421875	1584.947021484375	1125.878662109375	1193.248779296875	1791.5638427734375	3941.8681640625	2193.33642578125	460.83758544921875	1649.2041015625	866.900146484375	550.9611206054688	1335.66552734375	1270.819091796875	817.6382446289062	1011.8216552734375	747.8185424804688	747.8435668945312	1934.3641357421875	1540.58203125	1056.748291015625	906.6151733398438	878.1054077148438	848.7056274414062	1759.5689697265625	1142.2650146484375	1433.7454833984375	1655.290283203125	1032.5599365234375	1336.415283203125	1089.453369140625	1320.2996826171875	431.1095275878906	1169.477783203125	1144.6490478515625	802.5410766601562	1605.4010009765625	1222.4090576171875	2856.396728515625	2221.1845703125	3962.870361328125	1716.9149169921875
30	60	2796.824462890625	5541.96435546875	9657.4404296875	11638.287109375	13219.93359375	15445.033203125	2452.1181640625	8647.6787109375	11135.7783203125	6945.099609375	3132.58642578125	7945.5791015625	9015.3759765625	13315.8671875	3030.710693359375	5796.34814453125	9140.7939453125	11708.62890625	14072.2197265625	15930.2060546875	3623.359130859375	8942.55859375	10207.4150390625	10808.0166015625	8032.90478515625	3270.71142578125	1835.217041015625	2488.646240234375	7237.42529296875	7798.92236328125	3962.983642578125	1511.1043701171875	14702.8056640625	22343.14453125	16081.7333984375	18347.4296875	8657.87109375	11556.720703125	12571.5537109375	14274.2099609375	17571.078125	13220.99609375	13810.359375	17043.09765625	20589.09375	10326.3759765625	13512.806640625	15105.7763671875	17326.884765625	22245.041015625	17563.94140625	21890.091796875	16008.0419921875	21873.2578125	14483.5859375	15641.4208984375	10105.306640625	18008.4453125	16309.048828125	15268.6796875	14838.64453125	15273.1220703125	26484.90234375	15120.5576171875	26671.19140625	12730.3896484375	11550.904296875	10948.60546875	17608.6796875	15728.4892578125	14296.4794921875	12983.4541015625	13388.6904296875	12981.212890625	17481.03125	12293.6357421875	15771.6845703125	12661.013671875	14015.6982421875	12434.7373046875	11172.5810546875	13760.2607421875	17814.376953125	20210.89453125	15403.451171875	20489.763671875	15892.5634765625	15313.4765625	14790.9951171875	16380.91796875	6464.53564453125	17597.943359375	15308.255859375	13682.130859375	15266.3916015625	14405.4013671875	23347.416015625	12109.5703125	24550.166015625	12511.3173828125
60	90	6173.1328125	11682.9306640625	21587.34765625	26027.08984375	32289.552734375	35023.8046875	4181.62841796875	17075.73828125	23076.1015625	15607.59375	6007.9013671875	25478.53515625	18411.205078125	26823.58984375	6707.30615234375	13219.8994140625	19846.251953125	27412.79296875	31178.357421875	37203.890625	7361.5595703125	23035.533203125	16798.552734375	23833.943359375	19029.73046875	1524.378662109375	4334.24267578125	5276.439453125	22115.9453125	17789.345703125	4634.2294921875	3350.874755859375	35096.8359375	42335.78125	39954.85546875	44780.32421875	19746.52734375	29098.69140625	30236.55078125	30762.380859375	43425.41015625	30311.80859375	34260.17578125	39192.41015625	39049.66796875	26844.205078125	32457.814453125	39991.0	39998.9140625	49845.65234375	39734.63671875	53450.68359375	41169.625	48026.59765625	33304.37109375	36406.05859375	26393.01953125	40458.55859375	37727.48046875	39560.9765625	30450.138671875	33826.79296875	56151.3046875	28821.1796875	53689.46484375	25149.5390625	30614.15234375	22727.40625	39261.1953125	39030.4921875	24494.59375	30609.857421875	32557.419921875	28403.443359375	44162.421875	30768.34765625	36896.578125	30923.7265625	32304.05859375	29439.515625	22319.3203125	31202.630859375	41248.94140625	48950.984375	32759.154296875	57031.453125	40352.37109375	36986.79296875	35001.10546875	37857.22265625	12010.3623046875	40020.67578125	35557.93359375	37794.0625	30005.0625	32896.91796875	56603.1171875	28608.873046875	56535.4453125	26496.732421875
90	120	10015.9287109375	19270.953125	33785.37109375	40077.4140625	50091.87109375	55960.3515625	12015.35546875	27197.14453125	33850.2265625	28147.111328125	8372.7314453125	41594.26953125	30857.947265625	19123.78515625	10709.595703125	19633.01171875	32698.732421875	41564.29296875	48754.59765625	54404.6015625	15412.337890625	32641.7265625	35692.375	39939.61328125	29698.443359375	6447.4365234375	6335.501953125	7737.439453125	33656.58984375	29064.37109375	4895.03369140625	4877.05810546875	52090.7421875	60875.3203125	64211.16796875	70364.7421875	36224.4765625	45935.7421875	48360.02734375	51750.296875	68440.5703125	49853.953125	52256.3125	59234.421875	65560.34375	44125.98046875	47125.1015625	58533.2578125	60727.234375	84891.1484375	64092.30078125	93199.578125	64486.375	65732.1484375	54609.67578125	59488.7890625	38495.03125	66548.2109375	62309.765625	61417.4375	47720.23828125	54961.4765625	85376.8984375	43972.44140625	82081.140625	34226.921875	43318.796875	39276.9453125	62733.37109375	59248.828125	36796.34765625	51595.5546875	52674.85546875	45452.58984375	68570.9453125	51798.92578125	55018.87109375	53430.109375	51593.96484375	47048.2421875	35861.3671875	53017.83984375	63195.73046875	74850.40625	56166.78515625	82868.1171875	63464.109375	59533.53125	56611.09765625	58804.80078125	19147.828125	65554.1171875	58600.5546875	58463.71875	47338.17578125	51180.6796875	88045.5390625	44977.76171875	81655.2890625	38141.25390625
120	150	12339.361328125	27095.6953125	43455.19921875	50358.5625	67323.234375	67305.046875	10877.671875	29775.634765625	42308.73046875	37132.8515625	9495.369140625	53854.3984375	36445.73046875	-5512.41748046875	13191.0244140625	23627.82421875	43697.9375	48853.58203125	64815.79296875	73819.375	18388.728515625	41578.07421875	36927.3359375	31439.650390625	38578.6796875	1240.023193359375	8034.3076171875	9731.548828125	46329.98046875	38108.98046875	1261.904296875	5988.1708984375	66448.578125	75160.1796875	80774.03125	88704.3359375	43960.21875	62402.203125	62016.0546875	64303.00390625	79045.5078125	62213.921875	63860.390625	72201.7890625	80934.2421875	59549.84765625	45040.91015625	70669.5859375	75658.9609375	101403.1953125	81570.734375	117281.8828125	84658.203125	87183.1796875	71753.4140625	75192.6484375	49697.2109375	84506.671875	78365.546875	78804.296875	58760.05859375	70554.34375	114118.3203125	55492.10546875	101191.3125	47457.49609375	63707.39453125	45413.46484375	77933.796875	73505.3984375	48134.2890625	59462.0703125	69172.6171875	62063.015625	83335.796875	66243.3359375	66982.6328125	63495.66796875	63328.8515625	60489.26171875	46396.8359375	73263.34375	75619.375	96182.03125	72389.890625	113410.203125	83730.4296875	75713.546875	73314.2734375	72027.6796875	20346.892578125	82418.453125	73623.5703125	79193.1171875	58942.859375	65693.75	107243.2421875	51140.33203125	101926.2578125	45661.40234375
150	180	12640.951171875	26380.73828125	44276.66796875	52452.19140625	62410.62109375	72466.78125	16132.572265625	29505.34375	40039.0546875	40537.05078125	6364.52587890625	42433.96484375	39288.1171875	17529.755859375	13738.2041015625	24264.634765625	43576.10546875	52957.6328125	65564.1171875	74053.9453125	15850.3310546875	40588.29296875	39941.578125	39353.64453125	40099.54296875	-5177.947265625	7813.00146484375	9894.6640625	39108.609375	39349.875	-747.2086181640625	6259.74609375	66481.3671875	82820.3828125	77047.2421875	89641.515625	49823.8671875	61755.8515625	63289.26171875	64641.49609375	91249.84375	64251.4453125	65119.703125	72986.328125	82889.5	60709.3046875	51129.234375	82476.0625	77180.140625	104032.796875	80256.828125	111665.0546875	82176.84375	87712.84375	73015.2578125	76374.5546875	52169.671875	85691.3125	78526.2890625	81912.1953125	59754.2109375	71049.6484375	116972.609375	50622.61328125	106537.28125	43469.39453125	59343.71875	41107.3984375	81370.4453125	76607.203125	46306.3984375	62743.65234375	69948.0234375	60941.55078125	76767.5859375	69801.5	68819.65625	64121.3515625	65552.5234375	64773.37109375	49726.67578125	69153.7265625	81328.7265625	96375.9921875	68410.8828125	114538.8984375	86460.4609375	75442.328125	76733.3515625	74067.8203125	15024.8984375	83917.078125	75676.234375	81082.1328125	61803.765625	66778.9140625	112695.4375	48158.86328125	88406.5546875	46879.046875
180	240	12546.755859375	25083.578125	42833.1875	49552.2421875	59548.46484375	71328.3984375	8931.609375	29582.220703125	37992.640625	43342.80859375	7116.3359375	50810.4765625	39048.21875	3930.188232421875	13827.4658203125	25083.78515625	42472.25390625	49878.0859375	62763.61328125	66763.6484375	20444.587890625	38580.59765625	39212.8515625	40053.88671875	38202.42578125	-20112.05859375	7443.69921875	9921.8935546875	41890.1640625	36841.671875	-2355.689208984375	6282.83935546875	62872.45703125	83292.984375	75424.0078125	85663.90625	46555.6875	59795.1953125	62662.328125	64643.0234375	80307.078125	60748.3515625	63441.578125	70157.109375	80487.7890625	58501.85546875	54242.8125	74563.375	72766.296875	97404.6875	80452.7734375	111771.03125	82292.9765625	80827.1171875	70279.578125	74379.890625	51582.26953125	83105.328125	76432.2734375	80438.5390625	57926.3671875	70272.265625	106704.8046875	50806.98046875	95528.5078125	45602.48046875	60647.0546875	39865.4765625	78708.21875	75875.078125	46756.90625	59503.22265625	68190.96875	60979.9375	78611.203125	65085.50390625	66338.1484375	58327.46484375	62422.4765625	59579.51171875	46056.4765625	70739.1171875	76907.1875	91046.859375	66037.9921875	104700.8671875	79698.3984375	74523.5703125	73190.96875	72115.296875	18642.880859375	80324.9765625	71736.2109375	78305.9140625	58050.81640625	66222.890625	113837.34375	49410.65234375	82112.609375	46296.171875
240	300	12829.5595703125	24469.158203125	40396.0390625	47815.30078125	55399.4765625	64671.27734375	14098.173828125	28288.41796875	34004.734375	40200.59375	3069.264404296875	59492.73046875	37675.75	1039.0496826171875	13975.4228515625	22462.783203125	40007.4296875	49047.8359375	58515.140625	63190.484375	18264.04296875	34891.94140625	45009.8515625	32436.591796875	36823.16015625	-14895.298828125	6877.384765625	10154.2041015625	38646.05859375	35256.2421875	-2621.674560546875	6273.3291015625	57161.13671875	75593.5703125	68295.3515625	79394.2109375	44070.046875	57661.21875	57107.48828125	60667.9296875	71667.828125	55040.2734375	60968.15625	64591.5625	71961.4765625	54804.69140625	47551.52734375	67720.0703125	66369.1484375	88125.0625	72314.6640625	96151.5625	74324.171875	73864.265625	65930.4921875	66636.3984375	49240.9296875	76107.578125	69812.8046875	73117.6171875	54969.46484375	63471.140625	95594.828125	50487.890625	76810.84375	42516.35546875	56728.1015625	41540.9375	71069.8515625	69407.3828125	47385.48046875	55800.12109375	63203.5234375	57195.94140625	72098.546875	57280.34375	61645.72265625	56493.03515625	57755.9296875	55341.5	42328.671875	64145.375	66613.8125	85478.453125	61264.23046875	97171.1953125	75214.171875	65867.3046875	68323.015625	66696.8984375	21267.8828125	73499.4765625	65666.796875	71928.3125	55102.234375	60602.64453125	107175.9375	46523.8515625	70347.265625	44250.04296875
300	360	12801.6748046875	23172.490234375	37305.26953125	45060.796875	49777.99609375	56619.640625	16865.0703125	26886.1953125	33714.37890625	37361.87890625	3383.5703125	53057.578125	36762.82421875	-15156.99609375	13678.4599609375	22835.162109375	37141.11328125	43805.859375	50824.82421875	60321.44140625	19223.994140625	32805.7578125	40217.52734375	45088.34765625	34206.69140625	-15570.5341796875	6482.7919921875	9907.94921875	35752.6796875	32779.33203125	-2583.62353515625	6330.36083984375	51755.8125	70997.40625	62772.83203125	68604.9609375	46381.6484375	54129.8125	51892.23828125	55349.82421875	67016.546875	49492.64453125	56330.21875	54819.93359375	67112.0390625	51662.10546875	44655.4609375	63429.57421875	56404.66015625	80796.3046875	65774.0	87693.5078125	67072.34375	68324.7109375	59331.953125	60186.5859375	44878.96875	67603.078125	62579.88671875	65753.0390625	49343.06640625	58450.1875	83165.5703125	47548.3515625	66013.921875	40615.953125	49761.21875	36353.5078125	64602.1953125	66363.5625	44943.7421875	51660.1875	57868.29296875	51109.05859375	63958.13671875	51622.48828125	59314.2890625	50662.18359375	52674.33203125	51090.93359375	39338.609375	58425.66015625	62906.0546875	76212.3671875	54630.96875	82811.28125	67115.09375	61411.01953125	62911.890625	60165.1015625	22887.8984375	66705.9375	59013.01953125	66374.484375	49409.453125	55681.51171875	98429.96875	42924.94921875	64850.8515625	42825.16796875
360	480	13017.1904296875	22164.490234375	33121.5078125	39441.16015625	42436.515625	50545.2890625	17693.806640625	25103.396484375	28647.04296875	37095.18359375	2627.9189453125	45308.13671875	35097.6796875	-16978.896484375	13563.5361328125	20390.55859375	33358.875	41686.52734375	42921.6171875	52075.67578125	21706.59765625	30252.716796875	33685.74609375	41726.72265625	32003.19921875	-24572.3203125	5644.50439453125	10061.2587890625	31986.646484375	30405.388671875	-2188.165771484375	6292.47900390625	45406.06640625	60315.92578125	53256.80078125	62597.00390625	41609.703125	46890.984375	44939.61328125	49310.9375	57899.109375	41329.9765625	48196.296875	50358.99609375	58079.14453125	43707.51171875	39763.68359375	53465.97265625	51469.1015625	69987.546875	55453.03125	69910.8359375	58230.6328125	57661.66015625	50489.0	51249.78125	40547.56640625	58388.68359375	52894.53125	56977.99609375	44272.02734375	49441.7890625	80612.375	44032.85546875	57360.796875	37487.80859375	45491.1796875	38955.12109375	54916.93359375	56589.7421875	47827.90625	45350.1328125	50293.921875	47102.62109375	54686.21875	44445.84375	51511.75	43874.0390625	46580.0390625	44735.41015625	36529.328125	50835.33984375	51817.859375	68144.6640625	49287.0703125	67499.328125	58040.8125	51120.109375	52692.265625	53057.77734375	26182.212890625	57425.2578125	51278.02734375	55788.12109375	43093.3125	47953.87109375	85417.8359375	41612.1640625	54241.984375	39101.53515625
480	600	13022.9951171875	19749.41015625	29164.375	35528.89453125	35203.60546875	41422.6328125	20873.15625	22779.0859375	26168.3515625	33168.3203125	754.2138061523438	40996.51171875	32677.3046875	-17213.7265625	13793.9208984375	19131.771484375	28832.521484375	36072.8125	36074.078125	43705.3046875	21242.400390625	26361.861328125	34125.59765625	32980.0390625	30669.09765625	-22917.654296875	4883.7265625	10088.3515625	26300.998046875	28085.64453125	-1621.0582275390625	6339.70166015625	36746.00390625	49978.35546875	43546.3359375	53090.265625	35662.01953125	39357.96875	37641.05859375	42929.2109375	50346.6953125	33820.21484375	43370.46875	40664.9921875	48848.15625	37782.01171875	32760.25	45967.6875	41090.26171875	60186.83203125	47073.6015625	53929.51171875	47578.89453125	49454.26171875	42023.3046875	42318.3828125	36855.9921875	48512.40625	44010.75	46702.296875	37527.15625	41451.7265625	64147.4375	37281.02734375	45119.6328125	34031.8359375	36094.1640625	31383.595703125	44538.5078125	47644.03515625	38872.28125	38892.22265625	41825.17578125	41206.375	41127.70703125	35096.7734375	44711.50390625	33914.3828125	39282.03125	38107.828125	31372.544921875	41675.53515625	41706.08984375	58844.07421875	41077.078125	51306.3359375	45968.609375	42821.74609375	44100.890625	41682.2734375	24085.5625	47425.421875	42552.6171875	46985.33984375	37726.03515625	39886.19921875	72134.8125	34778.9375	45342.5703125	34189.515625
600	900	13404.4482421875	19119.19140625	23876.54296875	29459.52734375	27045.875	33806.69921875	21087.025390625	20392.451171875	21135.171875	29428.064453125	-729.5632934570312	32000.966796875	28914.505859375	-5116.2021484375	13989.6533203125	18402.34765625	23705.69140625	30875.408203125	27313.736328125	34786.94140625	21110.634765625	21338.9453125	31731.716796875	28838.642578125	28610.373046875	-13218.2099609375	4101.2333984375	10088.3291015625	21896.439453125	25076.71484375	-1502.2457275390625	6523.005859375	28208.984375	41795.7734375	33225.95703125	40222.96875	32113.443359375	32610.13671875	29548.87109375	34188.296875	36828.86328125	26066.2421875	36096.921875	32100.033203125	39773.6875	30259.513671875	28690.921875	35354.5234375	33300.0078125	48382.9609375	37409.3828125	41095.203125	37272.64453125	36551.46875	33032.15625	33243.9296875	30688.40625	38617.33203125	34094.515625	37651.85546875	30239.31640625	32885.3671875	50630.328125	33006.8984375	36119.23828125	28708.123046875	30213.935546875	28984.359375	34327.76953125	41083.79296875	36409.375	31111.6875	32190.3046875	33502.98046875	35478.30859375	27374.369140625	36162.06640625	28249.52734375	32891.94140625	29913.6015625	25633.763671875	33194.19140625	34713.8046875	47388.4375	31400.1484375	35471.9609375	35650.8828125	33958.24609375	34366.90625	32595.072265625	21278.267578125	37333.875	33335.25	36642.3984375	29507.068359375	31787.33203125	60995.08203125	31135.9140625	33387.4921875	29535.521484375
900	1200	13687.4765625	18227.40625	18507.29296875	22838.673828125	18111.88671875	23465.330078125	22055.615234375	17891.7421875	16901.375	25041.529296875	-352.1071472167969	26908.6640625	25352.033203125	-5318.693359375	14109.638671875	17103.978515625	18419.685546875	24288.044921875	20123.8671875	23845.068359375	22704.419921875	15494.0625	25819.673828125	21317.22265625	25149.470703125	-12432.6103515625	3649.449951171875	9985.69921875	14926.044921875	22080.564453125	-737.908447265625	6809.26318359375	22290.013671875	30928.1953125	24704.42578125	33341.203125	26369.236328125	25824.095703125	22865.83984375	27518.37890625	25419.443359375	20129.962890625	29458.380859375	24939.30859375	28716.55859375	23732.8046875	22051.931640625	26634.24609375	26118.3125	37460.78515625	29639.76953125	27757.845703125	27933.681640625	28376.984375	25679.052734375	25676.662109375	23484.634765625	30306.52734375	25399.38671875	29252.853515625	23267.044921875	25335.1171875	39409.203125	26771.859375	29050.818359375	24064.466796875	23977.0234375	23617.986328125	26972.787109375	34503.98828125	28453.712890625	24048.98828125	25316.900390625	26960.7109375	29000.91015625	21086.853515625	29237.9765625	22641.693359375	25289.490234375	23160.900390625	22073.5390625	25907.47265625	25333.6328125	37253.71484375	25254.56640625	27984.05078125	26533.54296875	25289.064453125	26015.2109375	24352.130859375	19374.734375	28094.060546875	25404.390625	27908.66796875	22575.166015625	23816.23046875	51489.1640625	26022.6796875	24767.28515625	25401.01953125
1200	1500	13614.564453125	16794.076171875	14869.2841796875	18475.595703125	14539.908203125	18507.728515625	21509.3984375	15770.7451171875	14152.658203125	20721.625	-36.10889434814453	15216.8720703125	22713.126953125	-518.0656127929688	13940.9072265625	15845.9833984375	14826.3525390625	19561.455078125	15257.130859375	18854.107421875	21615.88671875	13657.3095703125	20908.017578125	13502.576171875	21731.841796875	-1066.2608642578125	3103.005126953125	9742.5244140625	11372.4912109375	19778.408203125	-583.741455078125	6924.130859375	18137.49609375	22253.666015625	19842.033203125	30237.322265625	23237.28125	21636.537109375	18570.806640625	23537.68359375	21852.203125	16482.693359375	24905.85546875	20422.5625	23426.265625	19953.94140625	19169.630859375	20240.892578125	21920.544921875	31752.75	24692.03125	21187.828125	23210.068359375	23239.85546875	20357.5234375	20311.28515625	18594.16015625	24839.50390625	20964.583984375	24462.689453125	18941.556640625	20990.62109375	35123.98828125	21909.939453125	22064.185546875	19962.892578125	19016.927734375	19220.4140625	21032.712890625	30310.2265625	24949.84375	19929.4921875	20637.9296875	22109.837890625	22982.251953125	17011.193359375	24818.63671875	19801.06640625	21770.107421875	19298.42578125	16210.6435546875	21782.66796875	22524.17578125	31350.921875	20543.880859375	20735.951171875	21269.630859375	20069.90625	20835.1484375	20453.04296875	18193.634765625	23383.984375	20798.833984375	23359.732421875	18266.263671875	19595.798828125	42428.0234375	20778.35546875	25887.517578125	21176.53125
1500	1800	13458.82421875	15358.748046875	11805.3857421875	15283.42578125	11113.6240234375	14431.046875	19712.248046875	13236.326171875	13055.55859375	16977.4609375	942.94921875	9383.154296875	19078.16015625	-7909.6875	13634.466796875	14828.84375	12051.23046875	15598.140625	12112.8193359375	14447.859375	20377.85546875	11206.6328125	17110.01171875	9929.42578125	19698.7578125	-8651.1552734375	2894.83837890625	9577.7060546875	9575.5546875	17955.587890625	-27.829307556152344	7035.8408203125	15915.3984375	21410.6875	16125.466796875	25089.73046875	18689.84765625	18848.830078125	15387.4072265625	19539.458984375	18987.345703125	13983.84375	22510.9375	17824.81640625	18876.97265625	15802.2587890625	14456.1845703125	16140.033203125	19161.47265625	27096.462890625	19944.29296875	18259.955078125	19266.658203125	18863.65625	17197.826171875	17046.24609375	17178.818359375	20654.763671875	17274.875	20747.890625	16479.4921875	18031.064453125	29235.033203125	17585.384765625	19524.572265625	17195.767578125	16335.7578125	16372.0625	17082.716796875	24201.265625	21901.94921875	16545.041015625	16877.162109375	19663.99609375	20015.6484375	14770.64453125	21475.134765625	16868.353515625	18625.720703125	16050.20703125	14176.0927734375	19082.255859375	18620.2109375	25276.93359375	17252.849609375	19493.998046875	18528.40234375	17975.353515625	17697.083984375	17855.3984375	14029.015625	19178.576171875	17212.828125	19402.744140625	15073.79296875	16378.3330078125	37048.18359375	18067.15234375	19226.666015625	17872.458984375
1800	2100	13020.48046875	14358.5712890625	9817.1171875	12450.056640625	8980.8837890625	11669.142578125	18318.236328125	11906.1318359375	9914.2783203125	15262.6357421875	1230.94873046875	4458.62255859375	17122.5625	-3326.853515625	13090.966796875	13195.8935546875	9926.6943359375	13525.712890625	9656.1767578125	11508.3076171875	16422.275390625	11362.17578125	14916.9638671875	8469.68359375	16480.23828125	-10924.53125	2425.423583984375	9209.5361328125	7939.35107421875	15796.6328125	-26.408113479614258	7035.458984375	15389.1748046875	16939.396484375	13164.951171875	21093.884765625	16950.728515625	17103.380859375	13388.6044921875	17650.375	16903.24609375	12098.322265625	19936.953125	15632.0283203125	17109.064453125	13886.171875	12668.1650390625	15536.4384765625	16987.578125	23740.912109375	17475.7890625	18182.017578125	17511.1875	15173.28125	14843.4912109375	14980.4814453125	14302.5556640625	17839.28125	14671.796875	18325.478515625	13740.9453125	15817.884765625	26245.072265625	15946.3017578125	17176.017578125	15692.3583984375	15541.875	14672.0048828125	15130.4697265625	23513.388671875	20319.2890625	15725.830078125	15218.8623046875	15824.3759765625	17742.068359375	13278.654296875	18755.15625	15581.2431640625	15956.466796875	14001.0234375	12236.78515625	15917.85546875	15855.10546875	24759.95703125	16231.3525390625	15731.1533203125	15390.05078125	15492.939453125	15238.7001953125	15106.015625	16792.73828125	16633.681640625	14838.75390625	17937.853515625	13450.513671875	13977.455078125	32370.9453125	16138.6064453125	18200.216796875	16710.6484375
2100	2400	12327.3662109375	13132.12890625	8093.67138671875	10668.6748046875	8172.25732421875	10583.1728515625	16087.791015625	10919.017578125	8482.74609375	14468.05078125	321.2937316894531	1196.01171875	14135.4599609375	114.87277221679688	12422.48828125	12453.193359375	8263.341796875	11136.4873046875	8902.6748046875	10040.8466796875	14591.3955078125	8166.70556640625	12139.4853515625	4666.98486328125	15145.294921875	180.06126403808594	2311.44189453125	8793.9814453125	6569.93701171875	14177.9931640625	29.899267196655273	6822.6611328125	12865.3466796875	12949.626953125	12334.1357421875	21701.908203125	14972.9609375	16152.1181640625	12675.85546875	15330.5400390625	14888.1982421875	11315.494140625	18301.548828125	14862.845703125	14185.99609375	12673.38671875	12099.7734375	11441.3193359375	15589.005859375	19177.3671875	15704.703125	14913.0966796875	15126.1572265625	14051.568359375	13421.1376953125	13121.22265625	12514.64453125	16209.8828125	12744.04296875	16629.564453125	12084.5703125	13504.15625	24067.861328125	12944.0126953125	16629.033203125	12719.080078125	12877.7705078125	13836.404296875	13038.0	20616.859375	17565.013671875	13677.5869140625	13464.1513671875	13991.75390625	13520.6015625	11900.1396484375	15992.765625	14154.90625	15708.8759765625	12748.3115234375	8963.314453125	14868.751953125	14175.1279296875	20001.693359375	13937.11328125	13857.828125	14047.8515625	14481.5283203125	13017.5166015625	13997.794921875	15596.65625	14804.7236328125	12870.626953125	15973.6103515625	11367.41015625	12561.771484375	30262.62890625	11473.3427734375	14897.876953125	14957.87109375
2400	2700	11871.7509765625	11515.8466796875	7691.822265625	9072.607421875	5955.72802734375	8755.5888671875	12681.072265625	8805.177734375	7995.34033203125	11722.10546875	3715.413818359375	1798.9969482421875	13391.58984375	-10285.8359375	12086.23828125	11124.0947265625	7392.69384765625	9371.4443359375	7099.44775390625	8694.240234375	12427.1865234375	7459.07763671875	10574.2333984375	-108.43223571777344	12592.2744140625	-18110.080078125	1761.8177490234375	8185.1162109375	6841.87255859375	13261.87890625	862.98779296875	7044.572265625	13039.859375	13199.8623046875	10456.7412109375	17456.015625	14063.0546875	14567.693359375	10564.0849609375	15584.625	12240.1796875	10888.5517578125	16687.7578125	14858.1064453125	13248.70703125	10568.802734375	10086.2998046875	10910.3662109375	14125.4873046875	19642.490234375	13976.91796875	13128.8857421875	14044.1953125	12288.2138671875	11485.1650390625	12376.689453125	11215.744140625	14130.205078125	11314.06640625	14229.162109375	11070.439453125	12419.6083984375	20986.6796875	11289.541015625	15702.5673828125	12037.884765625	11221.1171875	11034.3203125	11239.7080078125	16743.5234375	13842.9091796875	13178.880859375	11750.130859375	13648.3984375	14336.96484375	11433.3603515625	15374.697265625	13750.3857421875	12921.708984375	11558.296875	9929.67578125	11271.2021484375	14356.990234375	19162.515625	11713.8955078125	13445.6298828125	12944.4912109375	13196.8974609375	10759.1220703125	11990.1923828125	10752.6357421875	13395.4033203125	10997.646484375	12967.697265625	10960.5185546875	10766.5546875	25363.02734375	11345.16015625	15396.6962890625	12527.740234375
