frame_start	frame_end	Left-Cerebral-White-Matter	Left-Cerebellum-White-Matter	Left-Cerebellum-Cortex	Left-Thalamus	Left-Caudate	Left-Putamen	Left-Pallidum	Brain-Stem	Left-Hippocampus	Left-Amygdala	CSF	Left-Accumbens-area	Left-VentralDC	Left-choroid-plexus	Right-Cerebral-White-Matter	Right-Cerebellum-White-Matter	Right-Cerebellum-Cortex	Right-Thalamus	Right-Caudate	Right-Putamen	Right-Pallidum	Right-Hippocampus	Right-Amygdala	Right-Accumbens-area	Right-VentralDC	Right-choroid-plexus	AirCavity	Skull	Vermis	Pons	CSF-ExtraCerebral	Head-ExtraCerebral	ctx-lh-bankssts	ctx-lh-caudalanteriorcingulate	ctx-lh-caudalmiddlefrontal	ctx-lh-cuneus	ctx-lh-entorhinal	ctx-lh-fusiform	ctx-lh-inferiorparietal	ctx-lh-inferiortemporal	ctx-lh-isthmuscingulate	ctx-lh-lateraloccipital	ctx-lh-lateralorbitofrontal	ctx-lh-lingual	ctx-lh-medialorbitofrontal	ctx-lh-middletemporal	ctx-lh-parahippocampal	ctx-lh-paracentral	ctx-lh-parsopercularis	ctx-lh-parsorbitalis	ctx-lh-parstriangularis	ctx-lh-pericalcarine	ctx-lh-postcentral	ctx-lh-posteriorcingulate	ctx-lh-precentral	ctx-lh-precuneus	ctx-lh-rostralanteriorcingulate	ctx-lh-rostralmiddlefrontal	ctx-lh-superiorfrontal	ctx-lh-superiorparietal	ctx-lh-superiortemporal	ctx-lh-supramarginal	ctx-lh-frontalpole	ctx-lh-temporalpole	ctx-lh-transversetemporal	ctx-lh-insula	ctx-rh-bankssts	ctx-rh-caudalanteriorcingulate	ctx-rh-caudalmiddlefrontal	ctx-rh-cuneus	ctx-rh-entorhinal	ctx-rh-fusiform	ctx-rh-inferiorparietal	ctx-rh-inferiortemporal	ctx-rh-isthmuscingulate	ctx-rh-lateraloccipital	ctx-rh-lateralorbitofrontal	ctx-rh-lingual	ctx-rh-medialorbitofrontal	ctx-rh-middletemporal	ctx-rh-parahippocampal	ctx-rh-paracentral	ctx-rh-parsopercularis	ctx-rh-parsorbitalis	ctx-rh-parstriangularis	ctx-rh-pericalcarine	ctx-rh-postcentral	ctx-rh-posteriorcingulate	ctx-rh-precentral	ctx-rh-precuneus	ctx-rh-rostralanteriorcingulate	ctx-rh-rostralmiddlefrontal	ctx-rh-superiorfrontal	ctx-rh-superiorparietal	ctx-rh-superiortemporal	ctx-rh-supramarginal	ctx-rh-frontalpole	ctx-rh-temporalpole	ctx-rh-transversetemporal	ctx-rh-insula
0	30	593.0618286132812	608.3098754882812	669.5325317382812	685.22412109375	686.401123046875	872.4560546875	491.1958923339844	915.9747924804688	751.8232421875	706.5975952148438	536.3905029296875	1354.33203125	767.067138671875	588.3231201171875	601.55615234375	540.6065673828125	736.6792602539062	935.7769165039062	756.2621459960938	1065.0556640625	1024.3876953125	854.1452026367188	450.24993896484375	750.6992797851562	846.6853637695312	471.6445617675781	308.13848876953125	366.4823913574219	553.6622924804688	687.7738037109375	715.9632568359375	217.9239044189453	952.4984741210938	1036.6611328125	710.0292358398438	816.916748046875	678.4140014648438	842.1015014648438	659.49462890625	696.4613647460938	977.0825805664062	551.905517578125	797.2557983398438	816.1689453125	1126.9287109375	613.1307983398438	937.1588745117188	727.3975830078125	905.2733764648438	772.9987182617188	797.799072265625	818.2601318359375	802.4974975585938	1034.4967041015625	687.0202026367188	722.7117309570312	1000.8659057617188	763.6450805664062	816.740478515625	634.9152221679688	930.7477416992188	810.6876831054688	703.5868530273438	801.6936645507812	1683.689697265625	1167.134033203125	458.2315673828125	1002.7550048828125	660.1769409179688	676.19677734375	651.1295166015625	805.7933349609375	616.370361328125	697.9319458007812	807.788818359375	590.7957763671875	977.2537841796875	818.7288208007812	813.4568481445312	690.2047729492188	817.7908325195312	620.1572875976562	964.0152587890625	766.8572387695312	890.845703125	736.3762817382812	739.2506103515625	920.9189453125	728.0672607421875	748.9867553710938	734.4824829101562	772.4705200195312	769.8733520507812	581.8238525390625	977.22998046875	814.2868041992188	1096.6253662109375	1053.5462646484375	1419.3309326171875	1047.2291259765625
30	60	6510.94970703125	6825.001953125	8108.6455078125	9165.1474609375	7415.09033203125	9009.525390625	6440.4931640625	7216.10595703125	7991.5966796875	6111.7890625	5060.0390625	8074.42041015625	8242.322265625	5581.90283203125	6554.4111328125	6757.650390625	7964.3359375	9175.9443359375	7997.01025390625	9809.794921875	7056.8505859375	7082.01708984375	7216.06591796875	9033.826171875	7368.41357421875	5200.646484375	2514.66943359375	2812.001220703125	7425.021484375	7167.17724609375	7269.40966796875	1528.20556640625	9261.837890625	9956.9111328125	8467.7568359375	8893.642578125	6635.02001953125	8144.45703125	7577.35400390625	7933.10986328125	9363.8681640625	7050.94970703125	7525.7783203125	9327.916015625	10453.5048828125	7399.4638671875	9040.087890625	8590.712890625	9790.4560546875	8997.2431640625	9293.2353515625	8694.8271484375	8322.4892578125	11174.0732421875	7867.7314453125	9387.5986328125	7484.208984375	9102.712890625	8905.7060546875	7634.55126953125	8856.6982421875	8922.345703125	9756.2626953125	7657.546875	11395.255859375	8894.119140625	7719.63427734375	8972.5107421875	9206.73828125	8349.634765625	7819.48681640625	8094.00439453125	7859.63232421875	7950.00537109375	9464.4130859375	6759.2490234375	8252.861328125	8106.15625	8888.2451171875	8205.0419921875	8038.25244140625	8164.50341796875	9772.5732421875	8982.9345703125	8913.8671875	8612.3701171875	8392.9794921875	10033.5615234375	8357.6884765625	9100.6796875	7773.40576171875	9605.1982421875	8775.9599609375	7159.6611328125	9338.4833984375	8499.1396484375	8936.7578125	6716.43359375	11502.544921875	9309.4716796875
60	90	14648.6328125	14664.537109375	18088.39453125	20416.9765625	17741.62109375	19867.22265625	13878.126953125	14864.2353515625	16320.298828125	13493.171875	11044.5087890625	18749.810546875	16623.599609375	12809.82421875	14821.9658203125	15194.048828125	17290.08203125	20771.3984375	17433.65234375	22001.25	15898.109375	16310.580078125	14082.3232421875	19326.80078125	16961.83984375	10751.74609375	5590.87841796875	6011.2109375	17762.232421875	15758.728515625	15510.3203125	3337.4111328125	21300.591796875	20104.255859375	19607.986328125	20077.013671875	14529.8037109375	18950.85546875	17207.142578125	17732.02734375	22484.373046875	15871.2333984375	17820.8984375	20140.34765625	20729.60546875	17635.638671875	21082.43359375	19734.576171875	21387.525390625	20320.501953125	20522.01171875	19575.66796875	19272.33984375	24688.484375	17600.3046875	21106.2109375	17563.01171875	20094.705078125	19796.396484375	17701.09765625	18406.83203125	19542.884765625	21068.083984375	15547.1826171875	24158.0078125	18621.95703125	18488.765625	17786.396484375	19873.2890625	19154.94140625	15487.8740234375	18149.36328125	17732.640625	17391.61328125	22190.234375	15848.318359375	18874.771484375	18294.30859375	19407.23046875	18264.2890625	17318.71484375	17924.923828125	21926.3984375	21530.994140625	19302.595703125	21540.39453125	19052.0625	22661.11328125	18639.474609375	20556.595703125	16677.953125	21241.68359375	19497.759765625	16954.763671875	19070.373046875	18535.873046875	20368.76171875	15593.3583984375	25040.580078125	20047.109375
90	120	23207.4453125	23825.39453125	28159.39453125	31180.30859375	27566.642578125	32135.30859375	24310.017578125	23481.2265625	25417.4921875	22247.880859375	16621.775390625	32089.74609375	26909.31640625	17105.59765625	23424.974609375	23753.431640625	27845.00390625	31774.173828125	27714.3828125	32812.63671875	25882.701171875	24615.798828125	25436.03125	30403.80859375	26586.591796875	15692.4462890625	8392.755859375	9043.91015625	27006.56640625	25382.513671875	23814.3046875	4868.28564453125	32358.203125	31092.251953125	31280.138671875	31123.0078125	24116.359375	29857.705078125	27036.4921875	28941.61328125	35528.80078125	25059.595703125	27372.591796875	31629.91015625	33633.09375	28375.056640625	31535.31640625	29824.140625	33304.01171875	33893.515625	32772.90625	33222.28125	29569.40625	36229.578125	28112.51953125	33269.69921875	26333.748046875	32446.75390625	31949.205078125	27609.232421875	28725.880859375	31054.673828125	33569.88671875	24519.005859375	37056.4296875	27636.08203125	27364.3828125	28777.9609375	31538.478515625	28851.1640625	22979.314453125	30321.75	27913.45703125	27800.193359375	33851.8359375	25506.310546875	27898.880859375	29572.39453125	30573.587890625	28627.625	28090.095703125	28776.55859375	33906.2734375	33020.875	31049.537109375	32512.044921875	29583.22265625	35214.18359375	29159.83984375	31612.95703125	26056.376953125	34052.984375	31309.765625	25777.09375	29570.595703125	28587.44140625	31676.033203125	23553.91796875	37000.3828125	29507.23046875
120	150	28917.990234375	31790.4140625	36055.2890625	38730.76953125	36398.9140625	38400.58203125	28503.1484375	27340.15625	30509.08984375	28692.41796875	20237.439453125	38329.6640625	31838.46484375	19737.12890625	29187.935546875	29897.115234375	36165.84765625	37950.51171875	35707.921875	42714.57421875	32778.38671875	30222.421875	28586.947265625	34134.8359375	32687.97265625	18867.693359375	10518.3779296875	11180.609375	36143.8671875	32177.705078125	28920.072265625	6002.5341796875	40738.140625	37845.15625	39070.6015625	38045.96484375	28901.521484375	38901.515625	33997.79296875	36183.46875	41149.73046875	31135.6875	33343.203125	38272.40234375	41302.2265625	37091.91796875	34602.59765625	36319.18359375	40996.703125	40207.62109375	41344.4921875	40355.546875	37391.68359375	46558.69140625	35739.09765625	41029.57421875	32438.390625	40743.62109375	39351.6171875	34085.01953125	35255.4609375	39007.95703125	41973.6484375	29501.958984375	46654.265625	35371.44140625	36629.33984375	34322.78125	38623.13671875	35425.26953125	28956.234375	36477.4296875	35328.67578125	35983.89453125	40888.04296875	31959.982421875	33836.6953125	35869.7578125	36741.34765625	36248.9765625	34413.0390625	36475.94921875	41132.32421875	40361.0546875	39189.2734375	41446.578125	36931.47265625	44082.27734375	36680.93359375	38415.09765625	31157.197265625	42309.6015625	38253.0	32590.892578125	36546.9609375	35777.4921875	39031.6484375	28821.119140625	47479.6484375	36018.27734375
150	180	29270.07421875	31313.001953125	36572.65234375	40364.05859375	33480.0625	41048.95703125	31117.37109375	27182.189453125	30523.6171875	29701.21875	19693.208984375	37576.7109375	33302.6328125	19762.43359375	29843.0390625	29887.744140625	36195.16015625	40431.18359375	35566.6875	43564.84765625	32896.58203125	30786.056640625	29706.310546875	37899.625	33627.765625	17857.47265625	10513.4345703125	11315.1357421875	33313.5078125	32799.30859375	28858.109375	6196.21142578125	41153.02734375	39111.35546875	37870.31640625	38281.984375	30331.900390625	38457.86328125	34511.26953125	36481.01171875	43842.734375	32055.482421875	33267.1953125	37994.85546875	41637.4765625	37458.1875	36132.96875	39316.0078125	41307.50390625	40900.74609375	40876.88671875	39726.23046875	36789.078125	46845.84375	36141.45703125	41448.12109375	33044.3984375	40938.44140625	39484.5078125	34637.33203125	35914.01953125	38977.671875	43474.12890625	28242.755859375	46879.02734375	34607.75	35527.99609375	33869.796875	39891.484375	36170.453125	27962.232421875	37165.2265625	35443.94921875	36208.92578125	40236.37890625	32907.87890625	34876.76953125	36163.34765625	37572.40234375	37617.05078125	34360.96875	36163.1796875	42429.8046875	40530.36328125	37748.296875	42624.4140625	37940.890625	44206.83203125	37908.69140625	38818.89453125	29705.85546875	42813.12109375	38924.77734375	32971.625	37956.6796875	36484.6796875	40963.546875	27527.294921875	43705.6484375	36788.078125
180	240	28532.380859375	30118.57421875	35347.6328125	38123.40234375	32955.90234375	40011.9453125	27877.24609375	26828.71484375	29530.44921875	30403.115234375	19208.34375	36192.05859375	32337.74609375	18043.1640625	28932.74609375	30246.642578125	35137.6484375	38268.9609375	34632.09765625	40375.9765625	32337.89453125	29018.671875	28718.37109375	34648.28515625	31797.37109375	17054.013671875	10182.376953125	11136.349609375	33660.85546875	31195.408203125	27537.33984375	6219.70361328125	39510.69140625	38161.22265625	36813.59375	36558.58203125	29241.333984375	37274.45703125	33855.0859375	36396.2890625	40557.24609375	30680.00390625	32564.966796875	36913.59375	40338.95703125	36259.54296875	35512.89453125	36370.4609375	39819.40625	39051.6796875	40601.40234375	39301.453125	36197.0859375	43631.5	34787.01171875	40021.7734375	32830.13671875	39890.62109375	38141.51171875	33590.5078125	35021.078125	38539.40234375	40519.60546875	27638.35546875	43695.375	34296.91796875	35278.16796875	33334.71484375	38277.79296875	34552.703125	27727.4765625	36122.98046875	34361.31640625	35336.3203125	39507.26171875	31087.40234375	33503.29296875	33821.00390625	36628.41015625	35447.89453125	33077.66796875	35558.7578125	40657.171875	38653.27734375	36709.390625	39488.31640625	35222.61328125	42991.75390625	36054.38671875	37962.421875	30053.744140625	41028.546875	36950.31640625	31623.853515625	35885.1484375	35483.12109375	41207.6953125	27346.748046875	42395.1015625	35574.4609375
240	300	27002.931640625	29083.5234375	33455.5703125	36632.10546875	30790.388671875	37717.37890625	28411.76953125	25553.48828125	27398.29296875	28183.267578125	17664.10546875	37238.93359375	31121.81640625	16137.2353515625	27488.931640625	27811.52734375	33012.1328125	37401.2421875	32235.14453125	38375.14453125	30605.998046875	27684.177734375	30607.701171875	31223.255859375	30811.15234375	15448.287109375	9764.2177734375	10968.857421875	31512.021484375	29788.388671875	25662.439453125	6237.0830078125	37351.5234375	35256.078125	34078.52734375	33841.1171875	27384.0859375	35797.05078125	31476.595703125	34475.171875	36566.2421875	28535.732421875	31125.0234375	34207.046875	37057.9609375	34237.36328125	33092.19140625	33056.48046875	36763.87109375	36144.46484375	37349.12890625	35078.609375	33473.95703125	40373.1171875	32838.80078125	36504.421875	30767.900390625	37085.1171875	35117.21484375	30934.740234375	33145.77734375	35526.0078125	37359.52734375	27345.009765625	39116.09765625	31829.185546875	33596.27734375	32495.142578125	35283.92578125	32317.564453125	27353.935546875	34016.34765625	32316.97265625	33272.078125	36424.88671875	28477.08203125	31547.59765625	31922.736328125	33984.82421875	33393.71484375	30746.939453125	32630.798828125	36875.05078125	36336.2890625	34369.1328125	37265.82421875	33487.95703125	39153.94140625	33981.19921875	35180.15234375	29543.884765625	38024.16796875	34249.81640625	29512.30078125	33866.21484375	32841.671875	38282.27734375	26709.931640625	39074.74609375	33506.75390625
300	360	25230.953125	27325.25390625	30927.890625	34404.03125	28393.3359375	34299.6875	26949.6875	24164.498046875	26969.697265625	26723.619140625	16499.556640625	35282.98828125	29872.056640625	14270.1064453125	25685.505859375	27203.33984375	30832.013671875	33638.9140625	29392.775390625	36922.8046875	29788.017578125	25974.30078125	27878.890625	33215.50390625	28746.271484375	14272.6826171875	9260.08203125	10504.953125	29359.44921875	27761.908203125	23591.484375	6229.79638671875	33943.96484375	33080.19921875	31332.583984375	30569.9609375	27601.498046875	33428.28125	29211.630859375	31869.228515625	33829.53515625	26531.365234375	29478.189453125	30230.396484375	34262.69140625	32187.638671875	31315.462890625	30957.140625	32680.330078125	33689.3828125	34374.46484375	31910.1484375	30673.837890625	37348.25	30116.986328125	33418.90234375	28985.44921875	33527.46484375	31951.9609375	28327.404296875	30273.9453125	32902.4140625	33455.75390625	25993.673828125	34818.26953125	29776.54296875	30325.4140625	28896.423828125	32462.544921875	29710.15234375	24973.369140625	31476.431640625	29622.337890625	30371.4609375	33387.44140625	26300.599609375	30606.9375	29214.720703125	32224.619140625	30885.529296875	29129.162109375	30212.384765625	34576.8203125	32585.765625	31440.33203125	33341.16796875	30524.08203125	36427.984375	31470.42578125	32200.263671875	27923.33984375	34983.171875	31201.99609375	27491.849609375	30991.5546875	30592.4140625	35242.13671875	23968.455078125	35740.97265625	32131.169921875
360	480	23070.01953125	25216.32421875	27795.56640625	30808.259765625	25162.154296875	31650.177734375	25687.166015625	22583.40625	24083.470703125	25702.7734375	15050.4365234375	30444.25	28074.361328125	12715.80859375	23369.9609375	24365.861328125	27709.974609375	31963.439453125	25558.298828125	33201.5859375	28379.26171875	23981.958984375	24569.982421875	30171.408203125	27054.904296875	12992.5751953125	8663.703125	10243.3017578125	26158.966796875	25874.48828125	21041.970703125	6202.138671875	30401.361328125	29725.669921875	27648.408203125	27491.189453125	24363.6875	29877.56640625	26215.54296875	28871.08984375	30128.625	23486.384765625	26231.7265625	27917.91796875	30682.138671875	28516.30859375	28102.396484375	27180.97265625	29659.109375	29877.86328125	30185.44921875	28105.861328125	27222.099609375	32264.44921875	26640.896484375	29603.39453125	26764.416015625	29858.46484375	27969.724609375	25218.6015625	27484.8984375	28899.076171875	31393.755859375	23762.39453125	31277.302734375	27309.3203125	28157.505859375	27385.529296875	28408.935546875	26285.462890625	25170.314453125	28700.251953125	26619.244140625	27846.48046875	29407.693359375	23651.658203125	27128.095703125	25988.931640625	28986.853515625	27677.736328125	26834.666015625	26758.8203125	29884.6484375	30110.720703125	28485.837890625	28969.498046875	26945.953125	31480.6640625	27349.611328125	28834.61328125	26236.201171875	30882.279296875	27682.494140625	24047.00390625	27741.6875	27005.0078125	31781.712890625	23269.1328125	31810.576171875	28753.5703125
480	600	20718.330078125	22407.03125	24485.25	27841.244140625	21442.08203125	27386.345703125	24336.71484375	20409.029296875	22186.974609375	23601.259765625	13374.548828125	26798.458984375	26225.201171875	11348.4931640625	21030.373046875	22014.4453125	24237.1015625	28186.029296875	22342.404296875	29174.43359375	25586.62890625	21867.484375	23950.818359375	26722.4453125	25339.650390625	11194.884765625	7966.7138671875	9904.4296875	22656.0703125	23790.734375	18281.626953125	6245.27001953125	26124.25390625	25355.578125	23809.8046875	23677.33203125	21337.27734375	26132.146484375	22882.734375	25636.84765625	25999.466796875	20706.162109375	23762.39453125	23612.466796875	26705.5625	25003.4296875	23963.322265625	23905.275390625	25175.837890625	26845.75	26287.255859375	23855.265625	23402.27734375	28102.974609375	23110.36328125	25321.078125	24073.07421875	25824.83984375	24036.919921875	21728.83203125	24171.7421875	25021.263671875	26649.31640625	20589.5625	26741.14453125	24542.83984375	24264.544921875	23677.53125	24267.1953125	22562.673828125	21498.701171875	25183.189453125	23189.669921875	24936.267578125	24376.669921875	20428.294921875	24580.287109375	21835.552734375	25111.462890625	24371.51171875	23468.6171875	23054.1171875	25007.67578125	26901.455078125	24779.888671875	24185.04296875	22862.134765625	27377.103515625	23740.51171875	23996.361328125	23440.84765625	26423.755859375	23848.73046875	21108.4296875	24499.7734375	23613.751953125	27693.716796875	20483.083984375	27067.458984375	25402.228515625
600	900	18426.529296875	20358.072265625	20529.98828125	23685.078125	17860.10546875	23878.68359375	21969.853515625	18251.462890625	19029.865234375	20649.802734375	11863.447265625	23098.302734375	23085.1953125	10485.7099609375	18633.2109375	19854.275390625	20298.794921875	24394.75390625	18472.005859375	24918.744140625	22904.654296875	19037.234375	21768.1484375	22491.42578125	23101.943359375	10355.01171875	7227.59765625	9471.4228515625	19178.771484375	21223.451171875	15362.6171875	6353.09765625	21260.625	22007.27734375	19630.0703125	19543.685546875	19085.421875	22182.1015625	19432.185546875	21501.681640625	20710.240234375	17730.8984375	21014.01953125	19914.40234375	22810.1953125	21125.525390625	21045.169921875	19543.048828125	21377.4140625	22824.447265625	22433.337890625	20464.71484375	19626.775390625	22562.642578125	19526.115234375	20821.7890625	20653.125	21736.62109375	19774.8046875	18424.4765625	20389.5859375	21123.845703125	21622.037109375	18378.40625	22610.421875	21122.919921875	20942.1328125	20903.830078125	20066.125	19337.83203125	19352.64453125	21373.58984375	18982.65234375	21035.14453125	20875.763671875	17551.35546875	20977.369140625	18664.107421875	21800.419921875	20311.712890625	20044.322265625	19327.80078125	21549.728515625	22558.62109375	20661.3203125	19893.888671875	18854.291015625	22401.048828125	19878.173828125	20086.1796875	20575.861328125	22003.69921875	19712.03125	17649.73046875	20251.16015625	19759.970703125	23231.39453125	18289.083984375	22063.97265625	21925.5546875
900	1200	16365.205078125	18024.662109375	16491.359375	19139.421875	14078.8974609375	19454.212890625	19248.294921875	15929.861328125	16394.8515625	17861.685546875	10558.5126953125	19523.072265625	20087.650390625	9278.53515625	16511.541015625	17345.802734375	16236.77734375	19943.109375	15266.8984375	19803.12890625	20299.80078125	15723.517578125	18020.626953125	18851.36328125	20221.51953125	9096.576171875	6793.72119140625	9098.94140625	14858.7783203125	18721.826171875	12920.55859375	6531.28369140625	17957.470703125	18045.115234375	16322.2001953125	16794.091796875	16127.0576171875	18496.296875	16516.775390625	18331.8515625	16987.703125	15407.1767578125	18211.626953125	16682.953125	18287.73828125	17816.55078125	17540.31640625	16118.052734375	18109.873046875	19340.62890625	19064.30078125	17031.79296875	16331.1650390625	18638.71875	16501.015625	17295.4140625	17324.017578125	18379.451171875	16107.6953125	15636.0966796875	17039.6171875	17592.1328125	18053.716796875	15477.43359375	18648.142578125	18056.919921875	17964.994140625	17481.3671875	16884.59765625	16894.8515625	16090.3642578125	17790.005859375	16168.5166015625	17722.41796875	17448.60546875	15302.3623046875	18151.359375	16069.099609375	17760.61328125	16928.26953125	16912.41796875	16180.849609375	17388.41796875	19180.0390625	17620.26171875	17305.751953125	15441.564453125	18151.345703125	16506.888671875	16559.185546875	17212.958984375	18036.05859375	16161.8759765625	14904.54296875	16625.974609375	16282.921875	19787.431640625	16050.0859375	18153.361328125	18812.58203125
1200	1500	14973.3916015625	15894.25	13720.66796875	16104.802734375	12443.125	16705.4921875	17701.46875	14055.2216796875	14356.5703125	15359.6923828125	9838.4453125	15329.7470703125	17867.08203125	8976.21484375	15076.9208984375	15373.841796875	13435.298828125	16636.44140625	13025.4287109375	17164.734375	18214.685546875	13965.11328125	15491.1962890625	15145.705078125	17588.82421875	9311.287109375	6230.06005859375	8731.685546875	12082.2119140625	16769.498046875	11281.3466796875	6569.1591796875	15358.427734375	15056.318359375	14251.17578125	15119.3115234375	14447.2998046875	16086.240234375	14529.638671875	16182.5244140625	14863.0048828125	13847.36328125	16165.044921875	14587.78125	15789.9677734375	15724.4150390625	15487.826171875	13628.515625	15832.728515625	17244.537109375	16742.546875	15141.3984375	14356.2451171875	16165.2724609375	14362.818359375	14934.578125	14978.173828125	16096.39453125	13966.396484375	13870.7998046875	14784.0693359375	15418.3466796875	16012.939453125	13219.7822265625	15860.5888671875	15658.875	15125.9140625	14957.828125	14473.10546875	15187.3681640625	14060.1201171875	15433.361328125	14113.48828125	15443.421875	14966.0888671875	13604.181640625	16232.626953125	14059.43359375	15741.6259765625	14721.6591796875	14584.0810546875	14178.6015625	15659.634765625	16700.267578125	15142.7890625	15115.0078125	13379.6005859375	15513.427734375	14326.4541015625	14623.0888671875	15293.306640625	15772.724609375	13965.5126953125	13238.4111328125	14347.427734375	14302.740234375	17040.3046875	13440.720703125	16387.51171875	16393.259765625
1500	1800	13907.548828125	14025.2431640625	11369.419921875	13791.5263671875	10818.8046875	14566.755859375	15798.109375	12230.1650390625	12827.4462890625	13311.2109375	8980.8974609375	12743.58984375	15406.373046875	7897.44970703125	13906.248046875	13792.7626953125	11297.9150390625	13885.595703125	11436.212890625	14733.2724609375	16239.888671875	12201.9130859375	13484.5390625	13043.5458984375	15853.140625	7900.61181640625	6008.548828125	8489.87890625	10359.609375	15062.4052734375	10198.1572265625	6626.8017578125	13892.3466796875	13932.208984375	12701.9208984375	13383.705078125	12404.541015625	14226.3837890625	13037.65625	14115.4775390625	13407.9638671875	12853.091796875	14953.6552734375	13292.2490234375	13877.185546875	13707.8818359375	13342.6103515625	12027.0419921875	14245.509765625	15566.17578125	14975.283203125	14187.529296875	12877.3369140625	14084.65234375	12952.240234375	13360.0126953125	13672.2763671875	14291.955078125	12372.1220703125	12520.2060546875	13429.18359375	14002.3232421875	13873.7734375	11223.740234375	14127.3837890625	14011.9375	14004.857421875	13746.55859375	12646.671875	13319.6806640625	12713.7490234375	13533.9189453125	12435.337890625	13998.4306640625	13749.3896484375	12584.0478515625	14748.5703125	12812.421875	13932.5263671875	13039.2734375	12880.5341796875	12879.951171875	13678.3203125	14447.5615234375	13618.3857421875	14016.853515625	12203.1171875	13950.2509765625	12901.078125	13204.0625	13121.990234375	13868.89453125	12340.3466796875	11868.7880859375	12638.859375	12705.498046875	14870.1181640625	11976.1025390625	14248.2451171875	14417.287109375
1800	2100	12934.98828125	12736.796875	9818.548828125	11714.046875	9772.8310546875	12934.16015625	14589.5224609375	10854.2841796875	11171.6982421875	11965.7626953125	8403.70703125	10770.0859375	13914.5478515625	7417.45263671875	12940.7470703125	12043.078125	9611.8603515625	12257.486328125	10068.4267578125	12648.5322265625	13701.7119140625	11533.6044921875	12132.3125	11521.638671875	13683.875	7325.09130859375	5559.68798828125	8122.0625	8841.6796875	13360.232421875	9263.556640625	6565.474609375	13044.5810546875	12320.814453125	11349.3125	12235.5263671875	11333.306640625	12946.912109375	11896.4775390625	13208.3779296875	12108.548828125	11758.552734375	13771.0556640625	12024.046875	12729.9111328125	12518.1787109375	12072.1962890625	11153.740234375	13031.3134765625	14277.8203125	13912.4833984375	13405.1533203125	11945.6484375	12650.376953125	11808.3212890625	12091.15234375	12445.0146484375	12924.4228515625	11047.84375	11484.5234375	11958.087890625	12757.662109375	12338.607421875	10441.2900390625	12639.197265625	12838.115234375	12769.302734375	12152.046875	11643.6650390625	12688.7041015625	11971.5185546875	12417.970703125	11491.87890625	12272.00390625	12306.142578125	11711.7587890625	13502.796875	11679.8017578125	12716.14453125	11741.0771484375	11769.4150390625	11555.658203125	12278.2138671875	14125.7724609375	12808.05078125	12810.603515625	10836.98828125	12496.474609375	11620.58203125	11971.0537109375	12814.35546875	12586.1064453125	11082.4228515625	11113.265625	11522.87109375	11445.1728515625	13377.5166015625	10826.5927734375	12819.759765625	13314.5439453125
2100	2400	11991.8525390625	11364.81640625	8430.880859375	10226.296875	8675.5986328125	11726.1044921875	12846.07421875	9846.337890625	9946.8056640625	11195.8740234375	7670.8896484375	9368.7373046875	11690.0869140625	6808.6826171875	11943.7841796875	11003.056640625	8253.4140625	10451.314453125	9265.673828125	11480.1962890625	12348.3525390625	9657.4052734375	10377.33203125	9826.62109375	12300.2744140625	7201.6650390625	5318.10791015625	7728.423828125	7337.287109375	12040.216796875	8447.2998046875	6349.31982421875	11548.10546875	10909.314453125	10651.7119140625	11670.220703125	10302.6611328125	11990.73046875	11263.9111328125	11909.3203125	10944.845703125	11062.5029296875	12624.2080078125	11246.5361328125	11459.935546875	11562.60546875	11138.162109375	9747.4970703125	11989.5419921875	12312.744140625	12569.1376953125	12221.92578125	10849.57421875	11543.64453125	10855.5712890625	11020.7890625	11261.2197265625	12003.052734375	9956.4609375	10623.1376953125	10914.2236328125	11483.1591796875	11405.2275390625	9064.0732421875	11771.625	11338.359375	11567.458984375	11060.833984375	10512.0712890625	11536.125	10485.58984375	11098.9404296875	10482.4775390625	11167.7333984375	10746.5283203125	10786.2861328125	12077.6904296875	10785.7109375	11763.3564453125	10835.9833984375	9879.568359375	10711.3388671875	11158.9375	12363.193359375	11440.4296875	11760.9794921875	9993.1298828125	11660.337890625	10503.7939453125	11037.5810546875	11790.947265625	11422.8837890625	10002.7744140625	10204.2822265625	10323.0322265625	10428.5	12794.1240234375	8906.93359375	11538.998046875	12110.6748046875
2400	2700	11289.0654296875	10177.4775390625	7952.60009765625	9174.7646484375	8054.4208984375	10485.3310546875	11119.51953125	8672.8466796875	9304.974609375	9818.9189453125	7713.52197265625	8771.9814453125	10962.283203125	6547.94482421875	11289.8701171875	9839.0380859375	7541.45703125	9304.6767578125	8654.2490234375	10504.2021484375	11143.544921875	8921.92578125	9732.365234375	8317.203125	10604.60546875	6151.6474609375	4873.87744140625	7366.21337890625	7365.3115234375	11131.5615234375	8006.61328125	6396.27734375	11256.4990234375	10391.9794921875	9680.7001953125	10538.54296875	9983.0517578125	11273.1767578125	10109.052734375	11494.1884765625	10435.7861328125	10585.328125	11898.2216796875	10942.5888671875	10621.5068359375	10663.892578125	10104.009765625	9325.2978515625	11157.857421875	12467.787109375	11789.3271484375	11616.3955078125	10161.1904296875	10672.138671875	10010.7255859375	10453.84375	10337.896484375	10922.060546875	9219.7265625	9714.271484375	10278.921875	10688.3583984375	10310.41796875	8335.9658203125	11161.154296875	10669.095703125	10750.7412109375	10248.9384765625	9701.267578125	10240.7548828125	9741.927734375	10665.6591796875	9674.4951171875	10815.728515625	10693.818359375	10399.0322265625	11423.53515625	10555.4287109375	10517.7373046875	10273.1279296875	9897.9404296875	9469.8349609375	10846.390625	11651.46875	10500.90234375	11306.8017578125	9455.681640625	10644.0751953125	9599.3798828125	10149.6240234375	9967.6240234375	10707.4794921875	9088.1357421875	9219.708984375	9901.1845703125	9713.8330078125	10798.177734375	8949.5654296875	10912.171875	11128.205078125
