frame_start	frame_end	Left-Cerebral-White-Matter	Left-Cerebellum-White-Matter	Left-Cerebellum-Cortex	Left-Thalamus	Left-Caudate	Left-Putamen	Left-Pallidum	Brain-Stem	Left-Hippocampus	Left-Amygdala	CSF	Left-Accumbens-area	Left-VentralDC	Left-choroid-plexus	Right-Cerebral-White-Matter	Right-Cerebellum-White-Matter	Right-Cerebellum-Cortex	Right-Thalamus	Right-Caudate	Right-Putamen	Right-Pallidum	Right-Hippocampus	Right-Amygdala	Right-Accumbens-area	Right-VentralDC	Right-choroid-plexus	AirCavity	Skull	Vermis	Pons	CSF-ExtraCerebral	Head-ExtraCerebral	ctx-lh-bankssts	ctx-lh-caudalanteriorcingulate	ctx-lh-caudalmiddlefrontal	ctx-lh-cuneus	ctx-lh-entorhinal	ctx-lh-fusiform	ctx-lh-inferiorparietal	ctx-lh-inferiortemporal	ctx-lh-isthmuscingulate	ctx-lh-lateraloccipital	ctx-lh-lateralorbitofrontal	ctx-lh-lingual	ctx-lh-medialorbitofrontal	ctx-lh-middletemporal	ctx-lh-parahippocampal	ctx-lh-paracentral	ctx-lh-parsopercularis	ctx-lh-parsorbitalis	ctx-lh-parstriangularis	ctx-lh-pericalcarine	ctx-lh-postcentral	ctx-lh-posteriorcingulate	ctx-lh-precentral	ctx-lh-precuneus	ctx-lh-rostralanteriorcingulate	ctx-lh-rostralmiddlefrontal	ctx-lh-superiorfrontal	ctx-lh-superiorparietal	ctx-lh-superiortemporal	ctx-lh-supramarginal	ctx-lh-frontalpole	ctx-lh-temporalpole	ctx-lh-transversetemporal	ctx-lh-insula	ctx-rh-bankssts	ctx-rh-caudalanteriorcingulate	ctx-rh-caudalmiddlefrontal	ctx-rh-cuneus	ctx-rh-entorhinal	ctx-rh-fusiform	ctx-rh-inferiorparietal	ctx-rh-inferiortemporal	ctx-rh-isthmuscingulate	ctx-rh-lateraloccipital	ctx-rh-lateralorbitofrontal	ctx-rh-lingual	ctx-rh-medialorbitofrontal	ctx-rh-middletemporal	ctx-rh-parahippocampal	ctx-rh-paracentral	ctx-rh-parsopercularis	ctx-rh-parsorbitalis	ctx-rh-parstriangularis	ctx-rh-pericalcarine	ctx-rh-postcentral	ctx-rh-posteriorcingulate	ctx-rh-precentral	ctx-rh-precuneus	ctx-rh-rostralanteriorcingulate	ctx-rh-rostralmiddlefrontal	ctx-rh-superiorfrontal	ctx-rh-superiorparietal	ctx-rh-superiortemporal	ctx-rh-supramarginal	ctx-rh-frontalpole	ctx-rh-temporalpole	ctx-rh-transversetemporal	ctx-rh-insula
0	30	114.48704528808594	122.99622344970703	131.8849334716797	192.08950805664062	189.10830688476562	563.732666015625	-56.94157409667969	285.5821533203125	321.5066833496094	388.4472961425781	2.2481138706207275	431.7168884277344	418.2431945800781	1179.1883544921875	119.4310302734375	259.4295654296875	189.20140075683594	352.963623046875	219.8492889404297	-34.437374114990234	698.5729370117188	277.6929016113281	164.998046875	1238.5096435546875	333.18609619140625	226.2638702392578	133.9053955078125	152.3255157470703	-213.77862548828125	198.6219940185547	308.80999755859375	148.07308959960938	274.314453125	151.08729553222656	62.539085388183594	247.26148986816406	383.5408935546875	218.20376586914062	226.4274444580078	119.34033203125	160.1920928955078	159.6592559814453	527.72314453125	152.03269958496094	567.060302734375	191.3967742919922	88.1767578125	146.25595092773438	449.9702453613281	173.7432098388672	134.79278564453125	427.88934326171875	250.57118225097656	386.35394287109375	197.329345703125	259.9403991699219	703.4794311523438	203.79287719726562	328.9000244140625	11.70876693725586	357.1612548828125	255.59823608398438	228.1589813232422	1020.8035888671875	140.8687286376953	450.30255126953125	294.8291015625	308.0652160644531	154.27801513671875	313.6830139160156	168.49549865722656	242.62379455566406	116.52275085449219	39.90554428100586	362.1452331542969	99.89683532714844	626.8461303710938	158.159912109375	622.8507080078125	142.70590209960938	289.76324462890625	321.0525207519531	287.02960205078125	4.415696144104004	292.1441650390625	76.93523406982422	158.1259307861328	418.864013671875	164.04322814941406	261.8321533203125	981.355712890625	268.5461730957031	248.02517700195312	100.2017593383789	412.1462097167969	252.08892822265625	-46.80326461791992	1120.671630859375	411.2668151855469	896.7792358398438
30	60	2143.34423828125	3282.318115234375	7417.85498046875	8468.099609375	10491.6328125	11768.796875	2708.8125	6158.12744140625	8854.6171875	4214.88232421875	1140.02001953125	9246.849609375	6298.84326171875	26956.71484375	2276.410888671875	3184.135009765625	7035.9638671875	8616.3544921875	9804.33203125	10730.220703125	7959.21044921875	8373.7109375	9530.9833984375	-3469.07177734375	6895.4072265625	10388.3447265625	1763.3511962890625	1492.608642578125	4417.197265625	5503.92822265625	6152.150390625	1396.416015625	10587.810546875	11834.0107421875	10359.9990234375	12803.095703125	7370.98388671875	8857.373046875	8714.017578125	9758.9873046875	9190.4287109375	9218.8994140625	11731.9228515625	8988.0751953125	13507.541015625	8236.2197265625	6506.81103515625	7367.986328125	10983.658203125	9685.88671875	10132.689453125	16283.2333984375	9516.3408203125	12681.04296875	9347.1357421875	11564.9248046875	12718.7783203125	10194.62109375	10099.3935546875	8855.1953125	10048.2724609375	9269.1416015625	12494.455078125	14492.6044921875	16008.55859375	9676.1455078125	10278.7490234375	13635.0107421875	9018.41796875	11754.291015625	7809.39697265625	6089.681640625	8250.2392578125	9895.373046875	10068.8212890625	8127.37744140625	14996.904296875	9941.26171875	14537.2470703125	9490.611328125	5350.6787109375	9550.1455078125	9037.1328125	11011.009765625	10422.9599609375	15711.11328125	8830.2744140625	10176.6591796875	8758.6953125	9746.5087890625	9115.013671875	9891.544921875	10437.4580078125	8314.5390625	9097.0166015625	8345.6533203125	13187.1015625	11338.20703125	17248.53515625	10502.154296875
60	90	6245.45751953125	9177.62109375	21406.515625	25414.9296875	31035.830078125	34371.8046875	12011.177734375	16884.869140625	23516.068359375	13639.966796875	3256.16796875	19993.052734375	17962.78125	61464.15625	6724.82470703125	10142.310546875	20638.837890625	25732.201171875	27432.84375	32279.939453125	19144.466796875	21234.783203125	16127.984375	-3700.984130859375	18160.326171875	14062.720703125	5260.2705078125	3749.14208984375	14405.8720703125	13825.7109375	12915.3818359375	3656.976318359375	27793.67578125	27289.076171875	33091.37890625	35055.09765625	20482.150390625	26592.294921875	25480.599609375	29786.814453125	28644.0625	27615.630859375	31313.91796875	30174.72265625	36808.93359375	24822.140625	16964.208984375	22431.5234375	32226.869140625	26413.642578125	30425.5234375	51548.06640625	29086.865234375	35567.1484375	26474.220703125	32686.78125	33457.64453125	30481.42578125	30280.064453125	25784.3125	27297.189453125	28105.96484375	34115.45703125	33314.640625	48465.796875	25568.119140625	29861.244140625	30341.666015625	29738.630859375	35988.9375	24264.73828125	21793.05078125	25027.076171875	27469.830078125	30215.705078125	27294.59765625	39417.66796875	30604.216796875	40161.51171875	27509.9921875	16509.34765625	26248.462890625	27352.77734375	33124.49609375	27682.0078125	47468.4609375	26308.26171875	29400.3515625	25676.830078125	27972.376953125	19808.87890625	30214.798828125	31540.71484375	26291.650390625	25069.041015625	24357.2734375	41381.203125	28844.5703125	49184.75390625	26328.96484375
90	120	11662.140625	19012.99609375	38786.47265625	47902.51171875	55536.6640625	59486.5	24074.234375	32083.931640625	45542.4453125	28078.0625	6992.45849609375	31752.36328125	29956.99609375	93420.0390625	12294.9072265625	17772.697265625	39080.73828125	47408.69140625	57503.05078125	63560.3203125	28910.423828125	39722.71484375	35091.66015625	2379.764404296875	34721.26953125	53038.18359375	9454.3896484375	6697.7939453125	24600.943359375	29198.00390625	20944.3203125	6606.84228515625	50747.16015625	48971.6640625	63503.4296875	58507.89453125	40442.6875	49551.8671875	48530.6640625	56514.078125	50687.02734375	52710.16015625	60119.22265625	56993.6484375	66338.3046875	48612.25	34967.8359375	46178.109375	56366.921875	52166.97265625	58521.15234375	90951.3359375	53534.421875	60951.9765625	51561.63671875	59810.55078125	58622.48046875	56296.90234375	55650.32421875	50318.984375	53615.5859375	50745.33203125	68990.96875	63373.375	82512.328125	51415.04296875	55631.5078125	59957.99609375	57188.44921875	71155.5859375	43652.67578125	41830.6015625	46289.69140625	53679.66015625	50217.27734375	53120.73828125	73188.3125	58746.33203125	81773.3359375	52938.45703125	34505.2578125	53712.11328125	50882.0546875	63905.7890625	55629.77734375	83734.0703125	48775.92578125	53662.92578125	49889.75	54908.15625	37162.66796875	56834.265625	59867.1875	50486.3203125	48648.1875	46625.28125	73076.4140625	55459.51953125	77378.984375	47187.3359375
120	150	17113.228515625	27285.515625	57675.953125	70393.59375	79537.09375	90101.7265625	32475.765625	44167.66796875	57138.578125	41685.40234375	7717.01025390625	50352.28515625	47423.2578125	132107.3125	17269.197265625	25862.84375	58171.51953125	71999.9765625	82811.765625	92830.6875	43203.99609375	55102.09375	55948.3671875	24073.662109375	45117.75390625	74450.234375	13423.724609375	8903.798828125	54810.921875	40344.26171875	25608.962890625	9092.330078125	70265.0078125	64938.17578125	90571.609375	85164.578125	62595.46875	76776.921875	72366.4453125	80398.9765625	71414.9296875	79792.828125	87168.3046875	80706.53125	91015.796875	71390.109375	52082.52734375	71195.28125	85912.7890625	71963.9375	81854.4921875	134633.8125	82847.546875	86590.484375	74291.0625	85816.25	78583.0078125	83119.0390625	81402.375	73331.25	73635.3828125	78765.34375	93605.3046875	83747.53125	112782.234375	69490.9140625	78929.3828125	82015.7578125	83493.5078125	102875.2421875	65176.51171875	64651.72265625	67966.21875	76516.328125	70611.25	75475.90625	101595.171875	88006.7734375	111090.03125	79073.59375	43508.19140625	71777.4296875	76953.484375	89714.5859375	78888.1875	125755.7421875	72188.4140625	83370.09375	73521.3203125	75003.140625	61815.94921875	83761.8828125	83804.078125	77696.25	67612.3828125	71813.703125	113197.1015625	81054.2421875	108218.359375	64444.2421875
150	180	18821.009765625	29293.607421875	64180.484375	75575.390625	92371.0859375	97399.015625	38323.56640625	50778.0078125	65797.4765625	38466.9453125	5021.83447265625	43434.64453125	48717.58984375	162286.53125	19183.197265625	27217.27734375	64068.44140625	76164.3671875	91999.3359375	101865.703125	53248.73828125	60522.72265625	67588.0703125	17103.78125	47685.26953125	82904.3671875	14963.02734375	9266.5419921875	53373.0390625	44534.98828125	23926.93359375	9615.771484375	75391.8203125	76336.1171875	96347.1171875	94910.578125	68980.4453125	84808.9609375	80511.3984375	94015.9140625	77812.15625	88059.3359375	94170.1953125	87315.765625	101773.4140625	78379.5	50164.87109375	78642.5859375	94184.875	83907.6171875	89381.390625	144372.703125	90282.3671875	100288.25	82654.4765625	91217.9140625	84869.7734375	91023.546875	90053.875	80798.515625	81838.8125	83168.4765625	92998.515625	97660.78125	131961.890625	74089.765625	84270.90625	95760.875	89428.28125	111184.4375	72232.859375	70901.21875	78648.3984375	86560.5546875	79729.1640625	87062.3515625	112666.515625	96249.375	126511.4453125	85403.875	51754.01953125	83915.15625	86145.140625	98082.921875	85864.265625	137528.5625	83778.7734375	86114.890625	80572.5234375	86805.4140625	65655.8125	94456.359375	93195.21875	83440.7734375	74987.03125	77414.328125	112699.5859375	90578.5	115705.71875	74030.4453125
180	240	20045.306640625	30212.35546875	67024.9765625	78497.28125	97067.453125	97909.3828125	41899.48828125	51535.16796875	68739.8984375	43806.65234375	4467.3154296875	57207.6640625	47372.42578125	127002.921875	19980.15625	28867.40234375	66171.7578125	82480.4453125	90365.2421875	103996.7109375	56691.015625	58671.51171875	54848.32421875	22703.626953125	48967.2578125	82654.078125	15372.6552734375	9383.7529296875	64973.1796875	45436.94140625	23146.482421875	10044.2060546875	82107.6015625	83104.609375	99281.578125	93331.828125	68325.453125	87491.3046875	81142.546875	97931.1015625	79612.7578125	90552.0	97914.0625	86452.6875	104442.4921875	80406.3984375	56711.9140625	82429.0078125	95368.75	81951.9296875	95021.921875	143784.578125	92829.3359375	96238.828125	85359.4765625	94150.96875	93576.5546875	93178.15625	91522.9765625	83733.078125	85686.078125	87059.9453125	98234.1171875	97772.390625	118729.5234375	77832.7109375	83436.734375	93570.9140625	95057.265625	107267.5546875	72598.4375	73519.7734375	78909.71875	92415.96875	82525.6796875	88750.375	117258.046875	96691.5078125	126635.359375	89919.5390625	51861.2890625	87053.9375	86057.1328125	95240.65625	89743.703125	134185.046875	85018.1015625	94012.34375	83450.5625	84421.5	65718.3671875	95615.625	94798.203125	86946.1484375	77990.625	79312.75	116997.5	108606.1484375	113573.9609375	72216.8828125
240	300	21369.70703125	31590.318359375	65331.99609375	77481.5078125	89842.2421875	96714.3984375	40103.93359375	51068.625	64965.8828125	45815.46484375	4112.830078125	54128.109375	50108.36328125	115202.4296875	21105.326171875	27420.6796875	65838.15625	80573.6171875	87547.546875	102837.4453125	55345.15234375	56698.2421875	63999.78125	21385.84765625	49331.9375	71844.5	15352.720703125	9768.1015625	56183.6796875	45615.6796875	21689.451171875	10368.6572265625	76125.75	81022.1640625	95415.7265625	83933.7734375	63743.28515625	85786.3671875	78749.0078125	96245.625	71511.6875	87387.5703125	93801.3984375	82790.6171875	99486.171875	77758.796875	57267.67578125	78517.9375	92974.2734375	82815.6640625	89603.90625	135241.21875	90470.1953125	91214.75	82168.1875	85958.453125	94412.265625	90025.0078125	87129.6171875	82452.2109375	83237.0859375	82058.8125	92932.09375	98172.109375	118786.3515625	76945.0703125	80740.9140625	93566.8671875	89238.546875	104618.3125	75341.921875	71931.953125	78331.4765625	90499.9375	78995.328125	85192.8671875	114405.8828125	92567.5859375	126333.140625	85162.0234375	51321.5390625	84316.7421875	83445.8203125	94052.15625	86793.96875	123472.078125	83080.0	90669.5390625	78882.28125	81859.6015625	70121.015625	91446.421875	91748.9296875	82623.9609375	77603.1640625	75774.5234375	109125.21875	109193.09375	104625.328125	72046.7421875
300	360	21215.865234375	30573.513671875	61774.51953125	76516.4609375	82525.8984375	86775.28125	45625.78125	47307.2421875	62831.96875	51147.64453125	2652.0693359375	58513.9765625	47109.9140625	75683.3828125	21524.53515625	28919.869140625	62016.8359375	77434.296875	82318.1796875	94138.171875	52741.140625	52154.69140625	49756.890625	33540.09765625	50561.6640625	59096.96875	14965.287109375	9881.5087890625	53932.00390625	43389.19140625	20179.341796875	10480.7236328125	74162.8515625	76715.9140625	89336.71875	76133.0859375	64417.8984375	81640.2265625	73451.3984375	89835.125	71677.734375	79900.5546875	90260.6640625	73861.8203125	99098.4375	72857.1328125	48752.90234375	74797.40625	86849.921875	71727.0390625	83091.1328125	120855.0390625	84318.734375	83453.5859375	75899.7734375	81560.8359375	87055.6796875	83354.875	82431.0078125	76343.6875	77871.875	77868.8046875	83290.84375	94941.3515625	105144.8671875	74356.703125	72099.09375	80972.4765625	83576.4921875	96490.0234375	71721.1953125	69717.0	72716.671875	86566.9140625	71249.359375	79360.0234375	108614.7109375	86333.7734375	111853.2421875	80163.4453125	48496.8515625	77457.40625	76736.890625	88131.1171875	80707.75	107488.1640625	73857.546875	80664.0390625	73273.421875	73052.9921875	72225.5234375	84926.5625	83264.9140625	77770.0078125	71378.6015625	70792.6015625	95333.3671875	105176.484375	88763.2265625	69851.34375
360	480	21493.458984375	29839.498046875	55124.375	67300.8359375	70404.0703125	75567.0625	41033.93359375	45049.82421875	55662.40625	47987.11328125	1159.8787841796875	47481.00390625	43613.75	84839.453125	21716.958984375	28695.75390625	54839.6796875	69919.796875	69057.078125	78301.046875	53419.98046875	43794.71875	56493.94921875	29269.02734375	46066.8984375	55050.0625	13472.126953125	9807.169921875	50841.41796875	39551.5859375	17731.490234375	10592.9873046875	65267.80078125	66645.0859375	75952.65625	64724.2890625	53173.22265625	72084.03125	63932.29296875	80342.8828125	55394.0703125	68450.8359375	75504.3671875	63986.07421875	87350.9375	64553.5546875	48520.6640625	62710.203125	75357.9921875	58812.46484375	72148.9609375	94625.0625	71770.6015625	72651.3125	65238.86328125	69438.1875	82157.3828125	71398.6328125	70468.3125	65928.4375	68542.8203125	65539.71875	66425.2890625	88298.34375	80312.734375	67357.640625	62326.94140625	76952.5703125	71217.3203125	79411.1796875	62722.8359375	61406.734375	61726.2109375	74939.125	62639.16015625	68121.9453125	93734.4921875	71946.1875	102266.8203125	69500.8671875	49636.765625	65713.3671875	66668.5546875	68942.640625	68563.0	85601.375	65521.7578125	71709.0390625	63535.3671875	64283.68359375	61290.94140625	74109.6640625	72413.015625	66687.1484375	62927.0	61656.83203125	79929.1953125	104986.3671875	68142.1328125	66577.2265625
480	600	21067.26171875	28825.775390625	46310.08203125	58332.07421875	57703.78125	62154.5625	39672.7578125	40597.90234375	48469.41015625	46340.24609375	-607.4225463867188	41961.19921875	39764.86328125	73734.6484375	21094.033203125	26839.427734375	46544.94921875	60153.35546875	60185.75390625	62234.59375	48467.8671875	42037.625	44908.85546875	38037.43359375	41119.7265625	41983.16015625	12126.65234375	9525.376953125	41350.84375	35657.8828125	14212.2734375	10579.7958984375	50973.58984375	59308.98046875	62006.62890625	53231.26171875	51102.69140625	60240.09765625	52294.8828125	68880.5625	48456.71875	55169.6015625	59347.8671875	52712.8984375	75852.140625	52935.0859375	41301.86328125	53909.515625	60628.99609375	46808.75390625	60409.71875	67856.6953125	58745.00390625	56062.1796875	54158.55078125	54909.01953125	68358.5859375	59049.48046875	57492.08203125	53324.66015625	58035.28125	54258.57421875	47522.2421875	78568.265625	64043.2890625	61038.18359375	52575.95703125	62717.6328125	58286.51171875	62305.2890625	52676.97265625	52214.8828125	50958.01171875	63342.4609375	48590.64453125	56438.609375	77996.40625	58746.51171875	84067.609375	58124.890625	39161.265625	53297.08984375	52003.390625	51772.1953125	56529.875	66826.3984375	51689.35546875	56872.94140625	51605.234375	51997.24609375	54603.28125	61631.9921875	59767.75	55540.8203125	51594.34375	50555.26953125	62641.0546875	95574.0703125	54282.0703125	61173.390625
600	900	20753.40234375	27733.849609375	35016.0	45851.09765625	41887.01171875	43295.87109375	37734.08984375	34066.046875	37417.0625	41226.3203125	-1066.797119140625	26768.77734375	34022.85546875	55426.1015625	20727.546875	25915.8359375	35249.64453125	48207.75390625	41489.9140625	44884.109375	43755.3359375	31118.1796875	46985.6171875	25973.06640625	33847.30078125	35282.25390625	10759.6865234375	9092.4384765625	30540.248046875	31267.189453125	11288.7890625	10544.5048828125	37950.72265625	48152.4140625	46233.9375	37442.8125	40486.9140625	46197.171875	38787.10546875	50832.578125	35424.484375	40496.3359375	44223.6171875	38318.625	59206.03125	39766.79296875	32872.2421875	37599.9609375	44269.58984375	32686.90234375	44042.83203125	45511.171875	42790.69140625	42215.67578125	39775.69140625	40382.51171875	53159.48046875	42981.6953125	42594.359375	39932.828125	44984.64453125	39545.49609375	30780.736328125	65749.890625	47850.44921875	49100.6875	37068.17578125	46956.75	42829.30859375	45758.71484375	42565.88671875	39353.0390625	38077.65234375	48846.94921875	36473.640625	41829.5703125	57986.33203125	43778.01171875	66735.7265625	43182.55859375	32981.88671875	40338.89453125	38472.75390625	36266.20703125	41200.73046875	43398.93359375	37340.9453125	41075.21875	38535.8359375	36935.09375	43955.08203125	45098.60546875	44553.2578125	40856.41796875	39351.1015625	37146.18359375	37112.69921875	80721.7109375	36050.80859375	48874.09375
900	1200	20109.66796875	25101.912109375	24268.63671875	32639.59375	26517.7265625	28419.091796875	32292.57421875	27318.34375	27687.603515625	31533.693359375	-2068.986572265625	18205.28515625	27901.681640625	41381.6875	20088.14453125	24152.271484375	24447.09765625	34230.98828125	28614.623046875	29867.65625	33904.78125	22262.13671875	33662.7109375	6072.21533203125	27799.037109375	24607.13671875	9408.427734375	8475.0048828125	23152.017578125	25896.87109375	8108.8095703125	10474.1357421875	26199.09765625	34506.38671875	31633.53515625	26651.669921875	30337.65625	33227.82421875	26906.232421875	37177.53515625	26624.341796875	27704.095703125	31783.83984375	26739.94921875	42208.71875	27334.416015625	22744.001953125	25111.537109375	29598.31640625	22842.78125	31520.86328125	27388.84375	29501.646484375	30209.3828125	27922.986328125	26830.314453125	37828.38671875	29496.71484375	30048.5546875	28326.005859375	32267.873046875	28642.70703125	20422.064453125	51666.83984375	32307.8359375	36570.57421875	25139.87109375	31374.037109375	29925.044921875	30850.166015625	31043.115234375	28473.349609375	27107.064453125	34311.95703125	23938.599609375	28689.634765625	41356.61328125	29401.29296875	47029.453125	30452.38671875	22112.2109375	27329.083984375	26411.982421875	25288.55859375	28398.095703125	27269.361328125	26230.453125	30596.677734375	26372.1640625	25316.296875	36194.2890625	31423.791015625	31713.111328125	28927.619140625	28426.416015625	26186.82421875	19473.501953125	66925.5234375	24944.919921875	36471.41796875
1200	1500	19463.40625	22606.09765625	18034.001953125	24281.703125	19069.818359375	19794.75	27157.619140625	22044.1796875	20217.259765625	24246.787109375	-1952.1837158203125	9898.5810546875	23680.0234375	28814.701171875	19120.470703125	22057.0703125	18226.833984375	25828.10546875	20945.94921875	19890.931640625	31098.8203125	16381.65625	28887.392578125	-1654.8809814453125	23436.26171875	18673.984375	8535.685546875	7881.15380859375	15991.818359375	23056.931640625	6419.3486328125	10522.4462890625	22739.27734375	27940.470703125	24470.828125	20735.005859375	27603.89453125	26998.09765625	21114.84375	28124.314453125	18131.470703125	21711.888671875	25663.490234375	20759.244140625	33048.4296875	21204.86328125	20060.07421875	18132.974609375	23737.126953125	19291.37109375	23250.86328125	20354.75	22787.19921875	24193.9296875	21305.541015625	20481.5703125	29474.173828125	22716.205078125	23654.767578125	22373.36328125	25415.900390625	22812.59375	14194.6015625	41322.51953125	25045.216796875	29042.306640625	19452.76171875	25701.521484375	24364.29296875	23703.75390625	23811.78125	23422.787109375	22040.5625	27552.552734375	21940.654296875	23424.435546875	32192.87109375	23819.115234375	38332.0078125	24478.7734375	16279.0048828125	22703.228515625	21281.52734375	20782.83984375	22790.419921875	21884.640625	20116.494140625	23730.88671875	21278.423828125	20550.8984375	29041.9765625	24823.65625	25302.619140625	23105.49609375	21962.24609375	21227.904296875	13832.421875	53278.6171875	21780.30078125	29370.9765625
1500	1800	18666.72265625	20876.724609375	14278.4267578125	19105.955078125	14990.59765625	15281.5615234375	24871.349609375	19499.095703125	16519.546875	19902.681640625	-1655.4273681640625	6675.75830078125	19125.708984375	28813.064453125	18388.734375	20333.8515625	14298.619140625	20132.265625	16106.6025390625	16459.1953125	24032.087890625	12604.7021484375	22914.599609375	-5480.96875	20978.916015625	15813.4775390625	8446.2568359375	7577.41650390625	12364.732421875	20646.0703125	5811.3251953125	10498.466796875	18589.994140625	23309.65234375	21266.634765625	17420.95703125	22668.380859375	23614.166015625	17900.220703125	25004.7265625	18782.65234375	18633.744140625	21064.318359375	18262.2109375	27997.66015625	17232.025390625	15384.265625	14261.876953125	20093.810546875	15580.2646484375	19884.33984375	16446.3203125	18436.294921875	19931.37890625	17696.26171875	16788.48828125	25570.091796875	18930.611328125	20039.958984375	18532.66796875	21278.97265625	19822.57421875	11651.689453125	31380.35546875	24148.888671875	23524.84765625	16345.9560546875	21847.474609375	19854.40625	21533.423828125	20431.291015625	20191.216796875	18808.908203125	21952.4140625	17472.41796875	19879.482421875	25831.0	20299.91796875	30928.14453125	20334.728515625	14664.9375	16758.66796875	17843.60546875	18820.587890625	19467.45703125	18845.62109375	17007.12109375	21474.34375	17884.869140625	17273.51171875	22222.736328125	21310.96484375	20972.3984375	19316.66015625	18520.310546875	18384.79296875	8620.60546875	45667.1796875	17304.2421875	25528.048828125
1800	2100	17837.43359375	18951.619140625	11713.09765625	16100.85546875	13361.861328125	13248.62890625	18909.1171875	16636.59765625	13693.845703125	15647.4501953125	-1532.142822265625	3128.60400390625	16612.298828125	22782.373046875	17366.205078125	18475.388671875	11908.6748046875	16308.919921875	13214.2158203125	13374.3251953125	19672.69921875	11374.681640625	18008.611328125	-12601.2861328125	17625.873046875	12552.337890625	7939.15869140625	7335.380859375	12737.9521484375	17183.86328125	5343.19091796875	10417.94140625	17155.861328125	22008.609375	18005.798828125	15523.125	19184.46484375	21129.158203125	15863.4072265625	21542.115234375	14237.6435546875	16747.783203125	18238.958984375	16901.197265625	25157.748046875	14941.990234375	14164.2919921875	12500.0029296875	17090.640625	14928.353515625	16785.478515625	15834.2060546875	16223.2294921875	19374.107421875	15384.419921875	15441.4775390625	20088.611328125	16232.8046875	17510.044921875	16509.38671875	18784.236328125	17450.658203125	10542.6181640625	25226.49609375	20661.853515625	20883.01953125	14778.7275390625	19333.068359375	18287.28125	18917.515625	16599.611328125	17929.01171875	16987.958984375	20586.71484375	16150.3720703125	17855.12109375	23076.892578125	17944.79296875	27405.642578125	17786.50390625	13994.880859375	15905.525390625	17315.755859375	15910.0224609375	18227.646484375	17526.50390625	15257.8076171875	18208.755859375	16111.076171875	14830.3125	18445.2421875	19036.564453125	19077.693359375	17654.322265625	16329.626953125	16220.880859375	5749.16162109375	38165.54296875	16188.40625	21201.8046875
2100	2400	16886.47265625	17973.44140625	9913.34375	13162.8037109375	11626.2294921875	11203.927734375	16184.611328125	14083.501953125	11776.0166015625	14957.552734375	-1153.37451171875	2263.558837890625	15322.4248046875	25326.599609375	16491.494140625	17461.048828125	10266.107421875	13682.92578125	12470.439453125	12118.76953125	16925.787109375	10516.5634765625	14624.4990234375	-11831.1875	15688.6708984375	9213.1923828125	7554.966796875	7158.82421875	8289.40625	16149.294921875	4831.39697265625	10284.708984375	16248.734375	19030.16015625	16847.146484375	16084.41796875	14772.494140625	19486.03125	15111.3828125	19978.080078125	15017.59375	15612.37109375	17309.302734375	15094.2705078125	21820.546875	13553.2900390625	12567.55859375	10761.474609375	16029.0224609375	14006.09765625	15784.3603515625	13223.3212890625	14989.064453125	14748.9521484375	13871.3994140625	13883.5771484375	18658.9921875	15215.3349609375	16165.6162109375	14790.123046875	16689.025390625	16306.814453125	9821.9873046875	24434.240234375	22320.064453125	18874.07421875	14079.10546875	19720.36328125	17132.181640625	17770.189453125	13630.8505859375	16599.638671875	15707.119140625	17892.513671875	15832.0029296875	16887.4921875	21155.458984375	17470.466796875	25373.255859375	16237.3935546875	12311.7431640625	13459.08203125	15106.1943359375	14809.3671875	15570.2958984375	16628.896484375	13599.4716796875	18727.248046875	14414.4921875	13955.3447265625	18414.322265625	17310.71875	17195.3203125	16188.060546875	15052.693359375	15706.8037109375	3700.353759765625	34442.3046875	15159.8330078125	18869.021484375
2400	2700	16024.7998046875	15791.9013671875	8874.9287109375	10525.638671875	8781.9111328125	9299.587890625	14745.953125	12665.8779296875	9768.5712890625	11932.9375	-113.19154357910156	-1078.8275146484375	12503.5673828125	21982.130859375	15558.712890625	15301.1552734375	8870.1357421875	11860.55859375	10143.4755859375	10268.3701171875	13022.669921875	7460.771484375	9520.376953125	-19271.8828125	14503.775390625	11261.6953125	7245.96630859375	7100.60791015625	8102.3701171875	15130.1513671875	4689.6142578125	10071.8994140625	14534.013671875	17296.599609375	15192.0966796875	14344.078125	12507.955078125	18844.865234375	13518.6162109375	17512.046875	12758.623046875	14024.708984375	14765.583984375	14728.720703125	20974.50390625	12076.849609375	12612.4638671875	11443.7607421875	14648.171875	12937.9990234375	14489.06640625	13381.8916015625	13968.90234375	14093.39453125	13168.2880859375	12141.39453125	15703.734375	13950.4365234375	14784.638671875	13810.2705078125	15216.8525390625	15340.1806640625	8443.6513671875	22559.240234375	17875.982421875	16774.244140625	12060.3720703125	15628.7373046875	15266.54296875	14761.80078125	9608.5927734375	16429.931640625	14909.6416015625	15729.0771484375	13861.8916015625	15675.572265625	18702.083984375	15765.146484375	23427.3828125	14991.6875	10246.3876953125	11438.072265625	13644.1640625	13704.6982421875	13821.9111328125	16679.142578125	12926.0087890625	15931.8974609375	13198.5390625	13111.1708984375	15524.15234375	15666.6181640625	16215.1337890625	14807.2978515625	13219.9033203125	14189.1591796875	3431.3720703125	28694.98046875	15390.8525390625	17609.7890625
