frame_start	frame_end	Left-Cerebral-White-Matter	Left-Cerebellum-White-Matter	Left-Cerebellum-Cortex	Left-Thalamus	Left-Caudate	Left-Putamen	Left-Pallidum	Brain-Stem	Left-Hippocampus	Left-Amygdala	CSF	Left-Accumbens-area	Left-VentralDC	Left-choroid-plexus	Right-Cerebral-White-Matter	Right-Cerebellum-White-Matter	Right-Cerebellum-Cortex	Right-Thalamus	Right-Caudate	Right-Putamen	Right-Pallidum	Right-Hippocampus	Right-Amygdala	Right-Accumbens-area	Right-VentralDC	Right-choroid-plexus	AirCavity	Skull	Vermis	Pons	CSF-ExtraCerebral	Head-ExtraCerebral	ctx-lh-bankssts	ctx-lh-caudalanteriorcingulate	ctx-lh-caudalmiddlefrontal	ctx-lh-cuneus	ctx-lh-entorhinal	ctx-lh-fusiform	ctx-lh-inferiorparietal	ctx-lh-inferiortemporal	ctx-lh-isthmuscingulate	ctx-lh-lateraloccipital	ctx-lh-lateralorbitofrontal	ctx-lh-lingual	ctx-lh-medialorbitofrontal	ctx-lh-middletemporal	ctx-lh-parahippocampal	ctx-lh-paracentral	ctx-lh-parsopercularis	ctx-lh-parsorbitalis	ctx-lh-parstriangularis	ctx-lh-pericalcarine	ctx-lh-postcentral	ctx-lh-posteriorcingulate	ctx-lh-precentral	ctx-lh-precuneus	ctx-lh-rostralanteriorcingulate	ctx-lh-rostralmiddlefrontal	ctx-lh-superiorfrontal	ctx-lh-superiorparietal	ctx-lh-superiortemporal	ctx-lh-supramarginal	ctx-lh-frontalpole	ctx-lh-temporalpole	ctx-lh-transversetemporal	ctx-lh-insula	ctx-rh-bankssts	ctx-rh-caudalanteriorcingulate	ctx-rh-caudalmiddlefrontal	ctx-rh-cuneus	ctx-rh-entorhinal	ctx-rh-fusiform	ctx-rh-inferiorparietal	ctx-rh-inferiortemporal	ctx-rh-isthmuscingulate	ctx-rh-lateraloccipital	ctx-rh-lateralorbitofrontal	ctx-rh-lingual	ctx-rh-medialorbitofrontal	ctx-rh-middletemporal	ctx-rh-parahippocampal	ctx-rh-paracentral	ctx-rh-parsopercularis	ctx-rh-parsorbitalis	ctx-rh-parstriangularis	ctx-rh-pericalcarine	ctx-rh-postcentral	ctx-rh-posteriorcingulate	ctx-rh-precentral	ctx-rh-precuneus	ctx-rh-rostralanteriorcingulate	ctx-rh-rostralmiddlefrontal	ctx-rh-superiorfrontal	ctx-rh-superiorparietal	ctx-rh-superiortemporal	ctx-rh-supramarginal	ctx-rh-frontalpole	ctx-rh-temporalpole	ctx-rh-transversetemporal	ctx-rh-insula
0	30	163.8117218017578	133.12924194335938	147.78033447265625	182.19888305664062	130.97889709472656	354.4879455566406	130.9404296875	248.07080078125	263.8366394042969	263.8991394042969	126.17969512939453	422.1606750488281	301.546875	182.3548583984375	167.29905700683594	222.76687622070312	197.77296447753906	260.05517578125	164.09410095214844	174.96868896484375	315.8808288574219	219.2180938720703	189.34153747558594	434.298095703125	301.0355224609375	150.00180053710938	136.28643798828125	153.5943603515625	100.63268280029297	224.76536560058594	243.61524963378906	128.00010681152344	219.70970153808594	207.216552734375	144.72158813476562	199.81097412109375	208.2045135498047	173.5404052734375	201.0755157470703	158.82017517089844	224.3673095703125	171.52037048339844	304.9817199707031	170.7290496826172	333.76702880859375	202.49142456054688	157.32518005371094	168.1291961669922	284.09112548828125	202.89605712890625	178.1143798828125	218.7390594482422	208.5427703857422	275.7291564941406	198.7647247314453	203.0702667236328	389.0111389160156	199.58010864257812	255.95774841308594	135.01739501953125	238.79351806640625	219.45143127441406	242.73146057128906	365.36126708984375	202.86965942382812	258.9331359863281	221.9366912841797	251.77305603027344	187.45074462890625	225.6356201171875	188.01551818847656	184.095947265625	165.68003845214844	133.37313842773438	232.85855102539062	146.8111572265625	313.3581848144531	170.99276733398438	359.63616943359375	187.51161193847656	220.52781677246094	245.30816650390625	238.6551971435547	166.75881958007812	250.66395568847656	120.61050415039062	190.18939208984375	280.167236328125	185.751220703125	217.65933227539062	364.92236328125	235.60804748535156	233.81329345703125	161.21827697753906	278.56402587890625	237.63278198242188	163.44837951660156	389.4818115234375	324.7820739746094	422.1017150878906
30	60	4629.94384765625	4599.12548828125	6270.69091796875	6736.322265625	5943.4443359375	7663.16357421875	4526.6552734375	5242.357421875	5924.76708984375	4507.69384765625	3742.8955078125	7841.10107421875	5764.6748046875	5022.2060546875	4599.80078125	4473.40234375	6097.77880859375	6641.701171875	5906.376953125	7784.4990234375	6519.67529296875	5681.41162109375	6177.24755859375	6423.5556640625	6100.1923828125	4407.623046875	1709.4786376953125	1981.229248046875	5957.6572265625	5331.57763671875	6154.3974609375	1334.94287109375	7101.751953125	6900.67724609375	6690.86328125	8169.42041015625	4860.07958984375	5967.6513671875	6382.5205078125	5730.35400390625	6882.0283203125	5865.58349609375	6819.80908203125	6542.4609375	7311.7138671875	5855.9482421875	5820.53076171875	6343.99755859375	6888.392578125	6412.560546875	6506.4189453125	7984.87939453125	6054.55078125	7653.6884765625	6360.7890625	7694.01708984375	7527.365234375	6644.48876953125	6874.65673828125	6503.6630859375	6554.052734375	6545.90234375	7440.39892578125	5720.61669921875	8247.1279296875	6629.9404296875	7091.21484375	7761.501953125	6408.56494140625	7727.564453125	4356.71044921875	5371.93359375	6435.28125	6094.0537109375	6899.4951171875	5789.611328125	7004.64111328125	6832.931640625	7557.3779296875	6544.09716796875	5278.859375	6787.88037109375	6669.32470703125	6912.50048828125	6853.423828125	8178.95703125	6135.9599609375	7259.39453125	6263.1494140625	7221.5478515625	6514.1044921875	6650.38525390625	7100.8125	6215.08251953125	6624.8046875	6259.48779296875	6850.462890625	4680.05322265625	8374.693359375	7023.67822265625
60	90	13279.84765625	13143.9560546875	17879.69140625	19979.208984375	17525.875	22887.07421875	14845.16796875	14273.18359375	15806.5888671875	13666.150390625	10380.671875	19980.26953125	15910.08984375	12972.609375	13316.9580078125	13535.1162109375	17542.103515625	19646.30859375	16423.90234375	22098.208984375	18091.8203125	15032.1552734375	14292.26953125	18161.42578125	16207.8125	10400.869140625	4824.66064453125	5163.58642578125	16800.580078125	14250.814453125	16236.1396484375	3487.947265625	18483.017578125	16698.37890625	19691.0	22528.572265625	13260.6083984375	17305.845703125	18096.361328125	16827.416015625	19762.5078125	17140.994140625	18030.908203125	20462.091796875	19670.71484375	16671.623046875	15328.2265625	17754.52734375	19167.26953125	17279.740234375	18596.54296875	25448.798828125	17560.583984375	20857.5859375	17659.810546875	21644.24609375	19653.03515625	19203.126953125	19494.669921875	17808.171875	17450.994140625	18873.669921875	19760.142578125	14220.2509765625	22908.17578125	17730.455078125	19737.802734375	19225.56640625	19173.89453125	22601.029296875	12956.0966796875	16756.966796875	18217.1640625	16900.478515625	19946.427734375	17677.892578125	18884.8515625	20172.326171875	19793.0078125	17804.5859375	15335.5126953125	18436.2734375	18332.736328125	18778.2734375	18352.390625	24721.55078125	17170.384765625	20129.646484375	17476.740234375	20646.11328125	16040.5517578125	19071.861328125	20242.55078125	17818.388671875	17564.533203125	17366.318359375	20843.779296875	12274.5380859375	23165.796875	18281.2890625
90	120	24683.515625	25313.56640625	32729.240234375	36878.28515625	32207.435546875	39995.80078125	27607.099609375	27412.03125	30087.5859375	26544.3515625	19910.501953125	35263.51171875	28038.544921875	23185.380859375	24901.486328125	24806.79296875	32889.56640625	36777.58984375	34536.72265625	42234.03515625	31872.033203125	28576.755859375	26813.65234375	36231.2265625	30531.138671875	22912.94140625	8692.6083984375	9332.513671875	31425.9453125	28180.365234375	29497.755859375	6289.5732421875	34307.984375	30952.90625	36936.046875	39925.99609375	25253.978515625	31955.025390625	33677.19140625	31498.88671875	35169.015625	32298.064453125	34261.88671875	38041.046875	35478.94921875	32000.05078125	29923.19921875	34314.30859375	34044.2109375	32998.94140625	35180.0703125	44756.6875	32008.912109375	36844.79296875	33421.171875	39405.77734375	34405.16796875	35248.16796875	35611.27734375	33367.0390625	33284.4609375	34095.43359375	38116.33984375	27174.037109375	40846.671875	34120.9296875	36868.15625	35785.87109375	35834.8515625	42352.5703125	24009.240234375	32004.71484375	33429.30859375	31933.50390625	34843.3125	33388.41796875	34898.03515625	37659.46875	38515.953125	33421.1953125	29484.54296875	35342.66796875	33439.6953125	35292.515625	35026.9375	44235.23828125	31474.490234375	36926.0703125	32609.439453125	39036.2109375	30289.90234375	35221.17578125	37644.5390625	33118.53515625	33091.18359375	32215.0	36255.66796875	22848.328125	38487.0546875	32918.796875
120	150	35736.328125	37135.84765625	48319.6328125	54226.46484375	45338.48828125	60038.0234375	39791.47265625	37865.3125	39870.78515625	37462.09375	27841.1640625	53209.234375	41610.140625	32247.9140625	35458.75390625	36415.375	48536.37109375	55073.95703125	49184.65625	61328.22265625	46035.703125	39559.34375	37824.30078125	54118.9140625	40670.54296875	31963.05859375	12148.2626953125	12746.287109375	49200.59375	39292.05859375	41032.95703125	8628.1982421875	48114.18359375	42789.23828125	52662.61328125	57780.31640625	38385.9453125	47938.1640625	49758.01953125	44895.07421875	48748.6640625	47808.125	49332.59375	54307.36328125	48637.1328125	46154.375	43133.37109375	49360.1328125	50279.8984375	46181.4765625	49335.50390625	65762.4140625	47902.109375	53901.62890625	48115.08203125	56097.31640625	46437.75390625	51192.9609375	51070.1015625	47962.18359375	46070.5546875	50952.82421875	53486.55078125	37337.21484375	55918.58984375	47233.8828125	51754.64453125	49061.11328125	50694.45703125	61023.8203125	34768.63671875	46986.609375	48114.76171875	45299.7890625	48743.22265625	47039.0078125	48793.40234375	55125.94140625	52388.1796875	48145.63671875	40333.87109375	49192.97265625	48782.89453125	49231.8984375	49085.26953125	65273.27734375	45385.06640625	53176.08984375	47062.78125	53994.8203125	42934.16796875	50548.53515625	52553.609375	48812.6171875	45831.69921875	47610.61328125	54334.46875	32456.599609375	54259.67578125	45693.30078125
150	180	39072.875	40369.7421875	53401.1171875	58429.2109375	51420.55078125	65040.78515625	45324.14453125	42490.515625	44343.0234375	38042.38671875	29369.7578125	54458.05078125	44020.27734375	35826.78125	39159.37109375	39546.8125	53049.2109375	58136.81640625	53826.265625	67920.109375	54136.82421875	43393.2109375	45105.6015625	60516.35546875	43493.30078125	33815.3828125	13276.0146484375	13512.5029296875	51443.5234375	43496.34375	43871.46875	9105.244140625	51353.93359375	47943.21875	55952.12109375	62307.578125	41245.671875	52705.953125	54365.1875	50767.16015625	53133.13671875	52523.85546875	53382.46875	59001.59375	53214.0	50477.9140625	44453.04296875	54449.98046875	54384.58203125	51978.45703125	53720.32421875	71028.2109375	51589.9375	59715.40234375	52351.61328125	60366.22265625	51632.41015625	55621.8515625	55780.484375	51891.08203125	50284.6171875	54405.14453125	56158.6640625	42233.515625	62443.484375	50265.2265625	55778.26171875	54671.43359375	54290.01953125	66329.96875	37524.1015625	51751.23046875	53996.59765625	50162.90234375	53444.98828125	52839.9765625	53642.24609375	59752.82421875	57855.88671875	51770.93359375	45388.43359375	54678.94921875	53580.3828125	53370.234375	53014.51953125	71738.9375	50349.40625	57982.39453125	51173.18359375	60436.30859375	46736.34375	55663.26171875	57479.50390625	52271.640625	49701.7265625	51080.41796875	57365.734375	35449.68359375	58926.21484375	51121.66796875
180	240	40521.453125	41982.93359375	55678.90625	60691.5546875	53696.4453125	66276.9140625	47233.6015625	43405.91796875	45798.9453125	40974.73046875	29799.416015625	60518.296875	43351.546875	33463.4765625	40120.12890625	41060.25	54863.828125	62210.45703125	52998.79296875	69325.1328125	56222.26953125	42758.96484375	41109.046875	60782.86328125	44468.95703125	33649.4453125	13673.3271484375	13785.4287109375	56005.78125	44177.95703125	44524.81640625	9427.2392578125	55062.62890625	49641.875	57696.8125	62262.83203125	42803.140625	54366.3125	55251.31640625	52828.0	54999.68359375	54073.3125	55578.01171875	58934.375	54471.31640625	52084.8125	47424.67578125	56371.65234375	55382.61328125	51547.54296875	55955.1171875	70619.96875	53070.640625	60296.8359375	54149.1875	61910.3984375	53540.34375	56866.8046875	56950.89453125	53515.921875	52123.87890625	56396.453125	57733.6875	43003.5234375	60600.671875	51924.0546875	56192.8125	54297.21875	56749.07421875	65251.015625	38934.33984375	53597.63671875	54383.16015625	52857.6796875	54581.1640625	53894.6328125	55224.328125	60177.81640625	58488.01953125	54064.39453125	45239.62109375	56732.76953125	53786.55859375	52736.6875	54636.97265625	70540.4140625	51204.328125	60189.48828125	52408.39453125	60276.25	46584.19921875	56270.34375	58581.43359375	53707.3984375	51402.7109375	51987.41796875	58974.0546875	40503.19921875	58359.52734375	50951.6640625
240	300	40304.0390625	42081.90234375	54520.3359375	59748.16796875	51024.125	65678.828125	46709.625	43132.375	44777.9765625	41786.28515625	29101.87890625	58017.4609375	44797.28125	33194.2421875	39914.203125	40241.96484375	54296.05859375	60966.76171875	51852.12109375	68910.5703125	55052.4296875	42712.15234375	42721.3203125	60020.4140625	44630.41015625	31667.30859375	13676.0234375	13929.4267578125	53748.421875	44658.76171875	43146.3359375	9694.3359375	52480.84765625	49293.38671875	56068.890625	58781.26953125	40977.05078125	53749.3359375	53868.203125	52158.94140625	51443.00390625	52770.671875	54024.67578125	57249.7265625	52615.88671875	50633.1015625	47103.140625	54324.7890625	54189.31640625	51695.09375	53931.02734375	67481.703125	52041.4921875	57961.3203125	52690.47265625	58252.18359375	53070.69140625	55362.859375	54982.61328125	52778.20703125	50953.28515625	54072.70703125	55673.1015625	43349.56640625	60209.7421875	51938.7421875	55539.30859375	54473.2890625	54301.4296875	62831.82421875	39607.078125	52971.16015625	53799.5	52265.91015625	51676.69140625	52401.046875	54564.1640625	58165.640625	58106.30078125	51931.6875	45165.12890625	55243.6484375	52152.97265625	52334.87109375	52754.8125	66621.90625	50111.53515625	58079.44140625	50630.54296875	58336.06640625	47902.0	54312.92578125	56939.54296875	51977.359375	50496.19140625	50342.67578125	56756.0390625	40379.546875	56344.5546875	50298.84765625
300	360	38501.1640625	40367.05859375	51595.984375	58448.98828125	46763.17578125	60706.73046875	47053.5078125	40442.16796875	43204.421875	42864.70703125	27277.24609375	57613.16015625	42488.41796875	28923.814453125	38260.265625	39439.23046875	51608.515625	59002.9609375	49149.0703125	64086.71484375	52445.9296875	40029.17578125	37717.3828125	56515.10546875	44151.94921875	29726.89453125	13392.7578125	13665.978515625	50515.67578125	41948.20703125	40454.60546875	9730.970703125	51162.45703125	45930.29296875	53292.5390625	53833.89453125	40209.55859375	51103.5078125	50647.33203125	49360.01953125	49394.6640625	49113.92578125	51666.578125	52311.50390625	51242.875	47669.50390625	42865.87890625	51457.984375	50759.546875	46097.578125	50116.47265625	61618.36328125	48601.94140625	53427.12109375	49207.6328125	55031.85546875	50023.41015625	51888.88671875	52010.41015625	49334.60546875	48036.30078125	51429.1640625	51448.2734375	42039.19921875	55238.7265625	49399.46875	50464.37109375	49283.984375	51011.74609375	58431.96875	38573.515625	50803.07421875	50438.50390625	50132.5859375	48461.42578125	49551.77734375	51972.63671875	54739.98828125	52974.9296875	49473.6484375	42852.71875	51190.1171875	48818.13671875	49450.3828125	49641.68359375	59921.35546875	46032.93359375	53724.0	47283.47265625	53703.98828125	46284.6015625	50961.1796875	52569.2265625	49085.83984375	47154.03125	47326.12109375	51020.59375	39510.6484375	50105.5	48272.32421875
360	480	35315.7734375	37614.5703125	46340.421875	52044.96484375	40449.9609375	53970.12109375	42489.68359375	38122.75	39293.6484375	39631.5546875	24820.45703125	48971.48828125	39211.8984375	27072.955078125	35214.64453125	37169.0234375	46013.23046875	53403.69921875	41924.72265625	56052.65234375	48832.36328125	36076.90234375	37321.41796875	50516.12890625	40250.28125	26864.041015625	12377.271484375	13019.9169921875	46069.21875	38656.3515625	35817.47265625	9706.072265625	45807.10546875	41421.359375	46074.0625	46609.80859375	35351.55859375	45866.3359375	44757.85546875	44586.1171875	41610.75	43464.85546875	44200.140625	46304.71875	45805.29296875	43178.44140625	40523.16796875	44494.55859375	45060.0859375	38994.30859375	44585.59375	51426.99609375	42665.04296875	47601.60546875	43338.78515625	47899.2890625	46080.4140625	45309.33203125	45506.31640625	43453.390625	42845.375	44562.109375	43651.30078125	39086.62109375	46420.87109375	44121.0078125	45223.8515625	45503.38671875	44523.8125	50086.34375	34872.62890625	45448.8671875	43710.83203125	44599.84375	43271.75390625	43682.89453125	45656.171875	47164.8125	48372.5390625	43562.19921875	40573.59375	45232.29296875	43200.296875	40599.96484375	42611.40625	50464.88671875	41299.1328125	48092.84375	42041.61328125	47420.640625	41623.33203125	45064.70703125	46556.5625	43213.8359375	42060.51953125	41937.41015625	44654.28125	39107.859375	43055.3828125	44292.37890625
480	600	31254.908203125	33986.6015625	39499.08984375	45385.96484375	34233.28515625	46090.13671875	38826.62109375	34125.171875	35145.4375	36651.453125	21598.607421875	42725.390625	35089.30078125	23787.98046875	31051.533203125	33081.46484375	39259.63671875	46321.453125	36993.9296875	46721.47265625	42608.9375	33026.4921875	31201.05078125	44562.5234375	36051.92578125	23773.04296875	11295.365234375	12042.1318359375	39104.9921875	34855.078125	30105.525390625	9550.65625	38004.4453125	36143.54296875	39057.6640625	38795.81640625	33097.24609375	39643.27734375	37550.75390625	38828.0234375	36042.01953125	36626.4140625	36423.5703125	38950.55859375	39549.875	36531.26171875	34997.26953125	38077.0234375	37871.77734375	32069.97265625	37827.5546875	40948.15234375	36136.33203125	39209.921875	37114.59375	39631.05078125	39272.56640625	38443.28515625	38258.55859375	36290.18359375	36704.77734375	37764.23828125	35458.39453125	35216.16796875	38865.3359375	39098.765625	39014.4140625	38544.671875	37451.21875	40845.65234375	30183.201171875	39101.08203125	36982.1171875	38513.28125	35816.640625	37213.4765625	39418.35546875	39640.05078125	41031.296875	37113.77734375	34403.578125	37792.40625	35506.796875	32766.1484375	35749.86328125	41720.6640625	34116.57421875	39571.80859375	35177.84375	39421.8984375	36763.16796875	38314.2890625	39246.078125	36616.22265625	35358.40234375	35243.6796875	37031.2109375	35218.53125	36085.25390625	38868.8359375
600	900	26578.369140625	29618.107421875	30656.37109375	36581.109375	26413.0859375	35278.625	33578.6484375	28816.83984375	28821.890625	31421.25	17978.384765625	31710.880859375	29812.841796875	19908.546875	26420.98828125	28767.775390625	30520.169921875	37598.7109375	27261.423828125	36667.7890625	36012.60546875	26964.7890625	28854.392578125	34222.1875	29872.951171875	20291.74609375	10125.990234375	10883.0517578125	30375.83203125	30143.134765625	23657.736328125	9341.4501953125	30326.173828125	29892.927734375	30701.16796875	29440.9921875	27194.6484375	31581.677734375	29340.435546875	30616.376953125	28064.591796875	28991.73828125	28534.416015625	30290.6640625	31657.63671875	28895.79296875	28232.494140625	29194.38671875	29452.564453125	24065.83203125	29041.494140625	31320.0859375	28196.9375	30754.646484375	29001.673828125	30746.140625	31520.587890625	29666.263671875	29993.068359375	28694.974609375	29489.486328125	29228.55859375	26526.306640625	30171.98046875	31553.205078125	31804.390625	30052.548828125	30623.5234375	29039.3359375	31522.478515625	25516.78125	31159.642578125	28834.75	30869.544921875	28144.216796875	29480.60546875	31013.83203125	31075.845703125	33184.6875	29299.96875	28414.66015625	29831.431640625	27867.10546875	24662.099609375	27572.171875	31284.7265625	26647.53515625	30946.279296875	27740.896484375	30183.42578125	30199.681640625	29518.927734375	30745.322265625	28574.20703125	28141.021484375	27461.38671875	26260.919921875	30565.5234375	27862.611328125	31553.671875
900	1200	22221.966796875	24363.857421875	22178.447265625	26986.37109375	18701.97265625	26102.591796875	27541.6640625	23136.3671875	22719.7265625	24965.755859375	14177.919921875	23554.544921875	24259.623046875	15710.796875	22120.525390625	23937.416015625	22029.48046875	27633.67578125	20109.900390625	27086.841796875	27935.55078125	21239.6875	22070.58203125	24082.765625	24245.03515625	16592.333984375	9001.3466796875	9678.6416015625	22650.8515625	24784.1015625	17741.919921875	9092.8935546875	23088.587890625	23298.78125	23031.83203125	22078.375	21458.400390625	24138.1953125	21919.25	23905.7109375	21777.828125	21947.138671875	21986.134765625	22815.81640625	23822.177734375	21780.462890625	21232.234375	21687.041015625	21960.642578125	18278.021484375	22422.001953125	23203.16796875	21399.17578125	23680.140625	21998.103515625	22734.62109375	24088.57421875	22120.92578125	22690.294921875	21732.25390625	22479.708984375	22393.1640625	19810.212890625	24557.134765625	23669.35546875	24550.583984375	23033.037109375	23056.0703125	21835.333984375	23297.041015625	20011.01953125	23554.150390625	21816.203125	23468.849609375	21101.6640625	22180.283203125	23806.083984375	22957.685546875	24637.46875	22174.017578125	21359.046875	22350.16796875	20908.654296875	18715.716796875	20658.818359375	23225.7890625	20347.822265625	24131.767578125	20875.724609375	22427.544921875	24542.4921875	22082.162109375	23216.263671875	21687.580078125	21557.4296875	20782.189453125	18129.728515625	26326.806640625	21211.67578125	24377.712890625
1200	1500	19719.00390625	20713.09375	17137.478515625	20930.197265625	15119.2822265625	20609.890625	23040.755859375	19019.3359375	18295.369140625	20224.513671875	11882.8115234375	17978.06640625	20450.51171875	12895.4970703125	19621.724609375	20540.162109375	17037.298828125	21511.998046875	16023.3271484375	21112.080078125	23911.01953125	17331.138671875	18794.2265625	18722.30859375	20381.669921875	13834.880859375	8218.5673828125	8877.30859375	17312.23046875	21443.896484375	14657.6591796875	9008.4111328125	20197.126953125	20154.638671875	19046.4296875	18271.0078125	18985.443359375	20321.146484375	18109.283203125	19699.634765625	17656.119140625	18485.1171875	18640.828125	18907.6328125	19737.513671875	18013.2421875	18524.728515625	17861.310546875	18440.455078125	15663.7119140625	18149.919921875	19534.556640625	17729.31640625	19858.275390625	18186.236328125	18816.220703125	19769.578125	18238.09765625	18880.5625	18146.228515625	18654.828125	18718.951171875	16008.896484375	20612.3828125	19493.162109375	20301.029296875	19137.380859375	19591.140625	18390.388671875	19227.45703125	16567.9296875	19847.982421875	18304.134765625	19937.662109375	18442.5	18956.525390625	19758.326171875	19389.3359375	20550.94921875	18673.205078125	17517.126953125	18961.8828125	17566.806640625	15826.31640625	17506.236328125	19916.0859375	16977.34765625	20150.60546875	17627.994140625	18924.478515625	20655.69921875	18341.576171875	19355.412109375	18160.37109375	17774.63671875	17539.716796875	14613.5146484375	21874.646484375	18173.623046875	20144.74609375
1500	1800	18053.11328125	18349.2421875	14157.9326171875	16986.84765625	13033.3056640625	17504.220703125	20424.513671875	16809.61328125	15639.76171875	17181.212890625	10567.2412109375	15360.59375	17161.49609375	11964.9833984375	17961.419921875	18083.2890625	13935.724609375	17502.572265625	13407.8984375	18278.541015625	19784.955078125	14914.9384765625	16393.5546875	15487.583984375	18113.6796875	12638.0947265625	8082.82421875	8456.3203125	14380.6123046875	19134.951171875	12887.87890625	8910.724609375	17683.333984375	17769.400390625	17034.8203125	16188.4326171875	16489.1875	18088.568359375	16024.623046875	17824.64453125	16571.59375	16656.00390625	16185.6728515625	16952.56640625	17196.94921875	15564.5126953125	15676.1142578125	15338.546875	16353.5498046875	13493.3662109375	16200.9189453125	17450.767578125	15488.2802734375	17529.71484375	15959.96875	16526.576171875	17502.009765625	16037.2412109375	16661.6328125	15828.4921875	16381.412109375	16707.740234375	13774.361328125	16818.759765625	17669.78125	17582.056640625	16861.529296875	16971.337890625	15988.2177734375	17495.48046875	15066.13671875	17446.705078125	16199.2685546875	17154.90625	16296.08984375	16848.015625	17003.474609375	17135.8125	17375.599609375	16338.0361328125	15478.9150390625	16069.83984375	15697.634765625	14260.55859375	15618.103515625	18005.849609375	15043.0400390625	17948.6640625	15543.8232421875	16670.4453125	17908.517578125	16296.53125	16845.75	16000.720703125	15675.259765625	15625.2763671875	12048.4208984375	19427.22265625	15679.0166015625	17975.333984375
1800	2100	16764.69921875	16337.7236328125	12060.0732421875	14746.2099609375	11945.2119140625	15450.568359375	17042.58984375	14518.4697265625	13618.7119140625	14247.3583984375	9452.595703125	13145.59765625	15008.3701171875	10523.068359375	16621.7578125	16143.5908203125	11960.98828125	14664.4130859375	11642.23828125	15712.0224609375	16996.345703125	13369.96875	14017.896484375	12784.4453125	15475.14453125	11542.904296875	7707.41259765625	8119.1982421875	12745.8779296875	16120.9072265625	11746.3056640625	8795.7138671875	16227.5107421875	16644.892578125	15215.3955078125	14920.6845703125	14450.181640625	16423.451171875	14581.8583984375	16108.1650390625	14623.2333984375	15268.0908203125	14651.8583984375	15651.34765625	15634.333984375	14153.2890625	14378.8662109375	14105.1767578125	14563.38671875	12715.376953125	14417.884765625	16331.3408203125	14158.1123046875	16442.84375	14411.806640625	15118.7333984375	15362.5390625	14374.2275390625	15155.09765625	14482.7177734375	14860.986328125	15134.56640625	12919.2958984375	14819.986328125	15905.275390625	16000.7265625	15554.17578125	15622.24609375	14653.7861328125	15754.708984375	13117.3955078125	15766.9951171875	14784.509765625	15910.9990234375	14795.4580078125	15463.845703125	15419.330078125	15605.9716796875	15669.544921875	14794.4794921875	14373.3857421875	14826.857421875	14753.9599609375	12792.90625	14755.521484375	16617.439453125	13813.435546875	16229.40625	14320.056640625	14922.9404296875	15552.2724609375	14888.0830078125	15386.1123046875	14755.65234375	14201.0712890625	14221.12890625	10495.345703125	17082.36328125	14170.666015625	15845.9404296875
2100	2400	15685.14453125	14925.484375	10581.9853515625	12582.1220703125	10821.521484375	13664.2294921875	15003.642578125	12628.033203125	12368.087890625	13678.43359375	8832.95703125	11956.3525390625	13710.2470703125	10520.6025390625	15596.935546875	14929.6083984375	10564.0673828125	12682.140625	10870.0283203125	14401.763671875	15155.0693359375	12108.8671875	12477.8642578125	12099.6982421875	13887.7197265625	10587.7099609375	7409.6767578125	7868.77294921875	10610.6669921875	14795.6328125	10878.064453125	8647.72265625	15339.4736328125	15263.4365234375	14181.1943359375	14357.8525390625	12774.798828125	15104.015625	13746.486328125	15078.3837890625	14032.572265625	14409.1416015625	13949.869140625	14323.642578125	14105.0634765625	13205.1376953125	12948.1962890625	12747.9912109375	13715.5107421875	12014.1455078125	13671.287109375	15042.6953125	13170.6318359375	14572.8955078125	13369.8515625	14063.3310546875	14219.5712890625	13567.892578125	14076.4609375	13360.9892578125	13697.71875	14099.1396484375	11886.67578125	14092.9091796875	15249.6845703125	14694.728515625	14753.6552734375	14952.115234375	13781.40625	15065.7890625	11842.546875	14553.359375	13768.1806640625	14465.1796875	14106.193359375	14591.0810546875	14419.0439453125	14830.5712890625	14588.365234375	13732.31640625	13061.2451171875	13514.4052734375	13361.857421875	11978.228515625	13115.11328125	15731.912109375	12721.0615234375	15175.6357421875	13052.955078125	14128.958984375	15138.98828125	13712.4921875	14236.3125	13662.9365234375	13246.20703125	13477.642578125	9539.8935546875	16038.1728515625	13270.0908203125	14473.087890625
2400	2700	14687.6181640625	13235.314453125	9623.9345703125	10618.037109375	9513.8623046875	12242.1962890625	13639.291015625	11512.7763671875	10961.033203125	12014.5224609375	8346.7958984375	9918.4169921875	11731.46484375	9555.818359375	14544.6455078125	13087.92578125	9345.515625	11257.3232421875	9636.9052734375	12672.01953125	12851.8115234375	10462.7998046875	9999.5966796875	9713.1826171875	12602.724609375	10085.185546875	7128.22265625	7691.50341796875	9706.7158203125	13765.4697265625	10213.19921875	8467.42578125	14212.896484375	13958.427734375	13215.8935546875	13116.6650390625	11596.123046875	14419.138671875	12714.251953125	13904.396484375	12788.80859375	13352.140625	12420.189453125	13709.2783203125	13496.076171875	12173.2001953125	12544.14453125	12160.111328125	12833.3896484375	11083.853515625	12714.2880859375	14276.775390625	12463.55078125	13753.93359375	12679.724609375	12924.185546875	12909.650390625	12635.31640625	13148.0576171875	12531.451171875	12722.8046875	13337.068359375	10893.0400390625	13283.1376953125	13788.044921875	13449.3671875	13369.5244140625	13114.2001953125	12746.0634765625	13531.1123046875	10227.4375	13663.3310546875	13008.615234375	13371.74609375	12925.8310546875	13752.9375	13241.7548828125	13736.7998046875	13442.6357421875	12817.951171875	11722.3623046875	12311.919921875	12406.8349609375	11020.2177734375	12039.650390625	14848.5390625	12030.7021484375	13908.2275390625	12237.18359375	13043.0712890625	13776.947265625	12688.0419921875	13330.29296875	12723.9501953125	12161.115234375	12483.298828125	9049.232421875	14031.5810546875	12838.837890625	13338.8427734375
