frame_start	frame_end	Left-Cerebral-White-Matter	Left-Cerebellum-White-Matter	Left-Cerebellum-Cortex	Left-Thalamus	Left-Caudate	Left-Putamen	Left-Pallidum	Brain-Stem	Left-Hippocampus	Left-Amygdala	CSF	Left-Accumbens-area	Left-VentralDC	Left-choroid-plexus	Right-Cerebral-White-Matter	Right-Cerebellum-White-Matter	Right-Cerebellum-Cortex	Right-Thalamus	Right-Caudate	Right-Putamen	Right-Pallidum	Right-Hippocampus	Right-Amygdala	Right-Accumbens-area	Right-VentralDC	Right-choroid-plexus	AirCavity	Skull	Vermis	Pons	CSF-ExtraCerebral	Head-ExtraCerebral	ctx-lh-bankssts	ctx-lh-caudalanteriorcingulate	ctx-lh-caudalmiddlefrontal	ctx-lh-cuneus	ctx-lh-entorhinal	ctx-lh-fusiform	ctx-lh-inferiorparietal	ctx-lh-inferiortemporal	ctx-lh-isthmuscingulate	ctx-lh-lateraloccipital	ctx-lh-lateralorbitofrontal	ctx-lh-lingual	ctx-lh-medialorbitofrontal	ctx-lh-middletemporal	ctx-lh-parahippocampal	ctx-lh-paracentral	ctx-lh-parsopercularis	ctx-lh-parsorbitalis	ctx-lh-parstriangularis	ctx-lh-pericalcarine	ctx-lh-postcentral	ctx-lh-posteriorcingulate	ctx-lh-precentral	ctx-lh-precuneus	ctx-lh-rostralanteriorcingulate	ctx-lh-rostralmiddlefrontal	ctx-lh-superiorfrontal	ctx-lh-superiorparietal	ctx-lh-superiortemporal	ctx-lh-supramarginal	ctx-lh-frontalpole	ctx-lh-temporalpole	ctx-lh-transversetemporal	ctx-lh-insula	ctx-rh-bankssts	ctx-rh-caudalanteriorcingulate	ctx-rh-caudalmiddlefrontal	ctx-rh-cuneus	ctx-rh-entorhinal	ctx-rh-fusiform	ctx-rh-inferiorparietal	ctx-rh-inferiortemporal	ctx-rh-isthmuscingulate	ctx-rh-lateraloccipital	ctx-rh-lateralorbitofrontal	ctx-rh-lingual	ctx-rh-medialorbitofrontal	ctx-rh-middletemporal	ctx-rh-parahippocampal	ctx-rh-paracentral	ctx-rh-parsopercularis	ctx-rh-parsorbitalis	ctx-rh-parstriangularis	ctx-rh-pericalcarine	ctx-rh-postcentral	ctx-rh-posteriorcingulate	ctx-rh-precentral	ctx-rh-precuneus	ctx-rh-rostralanteriorcingulate	ctx-rh-rostralmiddlefrontal	ctx-rh-superiorfrontal	ctx-rh-superiorparietal	ctx-rh-superiortemporal	ctx-rh-supramarginal	ctx-rh-frontalpole	ctx-rh-temporalpole	ctx-rh-transversetemporal	ctx-rh-insula
0	30	42.317283630371094	35.69873046875	29.685832977294922	86.60589599609375	88.67749786376953	67.04344940185547	180.60540771484375	73.17675018310547	44.22579574584961	172.0055389404297	10.529254913330078	-61.133338928222656	53.52759552001953	-27.430500030517578	47.66743850708008	27.414567947387695	54.08332061767578	87.23281860351562	118.35050201416016	69.7957763671875	124.32251739501953	7.606145858764648	78.3958511352539	-59.320594787597656	164.14370727539062	33.705421447753906	15.551031112670898	52.25460433959961	-20.81820297241211	32.96820831298828	37.800296783447266	40.5127067565918	-5.032177448272705	28.8657283782959	86.26603698730469	-1.0978959798812866	120.53791046142578	77.40681457519531	43.9721565246582	45.783748626708984	107.87525939941406	33.39110565185547	66.61003875732422	134.30616760253906	209.7898712158203	-4.554625511169434	87.16104888916016	74.6417007446289	51.85450744628906	73.82257843017578	111.92912292480469	172.82513427734375	146.1304931640625	14.833625793457031	57.64468002319336	16.911483764648438	9.35561466217041	88.598876953125	61.355682373046875	69.67007446289062	127.32121276855469	39.59523010253906	-39.27187728881836	217.0567626953125	290.6007995605469	205.78781127929688	110.46927642822266	142.98446655273438	-45.958744049072266	77.55337524414062	125.5146713256836	76.90442657470703	-13.058219909667969	11.937061309814453	102.54410552978516	41.2880973815918	16.509599685668945	51.784305572509766	61.2207145690918	98.1908187866211	127.69297790527344	22.45262336730957	-22.710189819335938	34.91997146606445	64.87550354003906	88.47891998291016	5.69720983505249	31.187744140625	59.43027114868164	38.7570686340332	-21.153339385986328	36.78071975708008	54.630821228027344	3.308521270751953	114.81015014648438	71.25382232666016	123.81161499023438	-11.184642791748047	407.2547912597656	70.22689819335938
30	60	1136.2335205078125	2200.553955078125	4201.21142578125	5283.92138671875	6190.0361328125	5980.6875	2837.248779296875	2780.54150390625	4765.54345703125	4414.1552734375	841.3709716796875	4781.92626953125	3765.499267578125	4266.302734375	1247.2430419921875	2093.220458984375	4193.21435546875	4379.701171875	6006.45361328125	6335.72802734375	2151.742431640625	3794.686279296875	3970.96484375	5184.6640625	3606.76513671875	7912.6669921875	371.90802001953125	1146.0758056640625	2808.65673828125	3837.282958984375	1936.91552734375	947.7074584960938	5347.453125	5831.50146484375	7622.46826171875	11815.2568359375	6176.94384765625	5201.23046875	6152.6435546875	5556.23828125	6977.1005859375	6993.78173828125	7740.00732421875	7668.82470703125	6824.42626953125	5881.83740234375	6022.93017578125	5243.51171875	7702.65771484375	8688.2412109375	7705.59375	11607.42578125	6675.85888671875	9069.2607421875	6874.70703125	7141.2431640625	5606.61474609375	7338.57958984375	6468.958984375	6508.7470703125	5617.5693359375	6819.35888671875	8577.8251953125	3887.6044921875	10836.328125	6863.61962890625	6599.83544921875	9444.5166015625	6718.59912109375	10044.6748046875	9525.525390625	4228.39794921875	5346.02197265625	5698.96484375	6276.33203125	6221.61669921875	6571.74853515625	7888.25048828125	5995.33642578125	5162.00537109375	4974.37158203125	7171.60693359375	6640.53466796875	7398.90283203125	6422.298828125	7868.38818359375	6201.92236328125	6575.24365234375	6440.048828125	5715.92822265625	7339.48974609375	6309.2392578125	6640.666015625	5799.8984375	5060.56494140625	5828.40576171875	9251.8369140625	3883.203857421875	14670.732421875	6591.95361328125
60	90	3924.564453125	7878.4326171875	14801.34765625	15576.390625	20849.521484375	21316.3828125	6465.328125	9166.0341796875	12944.16796875	13717.90625	2073.74462890625	25397.099609375	12534.4033203125	22573.712890625	4093.409423828125	7228.060546875	14363.7412109375	16779.4140625	19207.212890625	20019.765625	9600.658203125	11896.884765625	12978.75390625	9811.3974609375	12183.15625	21591.2734375	1037.3416748046875	3288.531494140625	14169.8681640625	11680.7255859375	4570.6689453125	2764.5537109375	18435.412109375	19395.26171875	23943.01953125	33493.17578125	16178.41796875	17763.80859375	21084.91015625	18606.912109375	23847.396484375	23233.546875	22907.935546875	23024.302734375	18710.375	17285.9375	14698.1669921875	20536.939453125	21608.47265625	27927.1484375	23225.5625	39911.89453125	23235.8671875	22172.16796875	23732.111328125	22152.837890625	17505.7265625	24370.8359375	22006.3515625	21390.212890625	17298.2578125	22447.611328125	27652.326171875	12127.07421875	32953.00390625	17782.29296875	20079.578125	19025.619140625	23675.046875	34158.88671875	19801.65625	14503.8828125	20089.029296875	17443.677734375	21037.388671875	22991.359375	22159.234375	23571.375	20076.966796875	18171.931640625	15516.853515625	21046.65625	22206.056640625	25860.638671875	23158.71875	28851.50390625	19915.873046875	21189.056640625	22266.88671875	20935.5546875	19068.2890625	22520.3671875	21962.884765625	20113.703125	16458.771484375	20773.9453125	24275.5390625	13224.8935546875	29219.681640625	16681.40234375
90	120	7482.41015625	14315.8115234375	27238.421875	29663.060546875	33932.7109375	37285.76171875	17689.310546875	16185.14453125	22894.779296875	23569.55859375	4938.8818359375	32346.75390625	21758.138671875	29883.24609375	7330.7314453125	13893.83984375	26951.56640625	28947.9296875	36222.12109375	38039.67578125	19068.224609375	21042.78515625	19182.52734375	27348.794921875	21551.638671875	58205.9296875	1503.7496337890625	6124.57763671875	25244.400390625	21581.37109375	5888.11376953125	4946.9052734375	36131.4140625	35197.671875	42585.20703125	60890.00390625	28062.91015625	33547.45703125	37327.81640625	32623.015625	40883.328125	42999.80859375	41028.16015625	41744.89453125	36247.49609375	33437.3046875	24098.9453125	41970.296875	41179.00390625	47344.76171875	41907.98828125	70116.8671875	43009.0078125	36286.87109375	43450.796875	41235.88671875	27713.111328125	44331.40234375	40646.5703125	41187.93359375	30613.802734375	39993.0390625	46182.87890625	23130.94140625	59788.60546875	30767.41015625	32515.421875	37350.0234375	42264.1171875	54778.08984375	32342.57421875	25956.767578125	38231.0859375	33004.07421875	37334.96875	42564.421875	41983.8515625	42476.7734375	37219.6171875	32204.94921875	21759.6953125	39571.3984375	38811.39453125	47214.6875	42501.55859375	54179.04296875	39182.84375	41854.3359375	39873.203125	40785.9921875	35641.046875	41918.37109375	40125.05078125	39095.17578125	29241.185546875	38875.48828125	46654.53515625	19762.076171875	50415.25390625	27413.701171875
120	150	9790.0595703125	19252.16796875	37582.5234375	40672.41796875	50129.62890625	55725.94140625	18752.6484375	21415.939453125	28960.62890625	27477.0390625	4417.56591796875	44364.6875	30605.251953125	40719.0546875	9905.021484375	18727.107421875	36622.14453125	42047.40234375	53701.3046875	51701.42578125	23125.759765625	26867.30078125	29146.716796875	37496.75	28465.484375	75248.21875	1811.3707275390625	7790.62158203125	33135.63671875	27741.435546875	5854.9560546875	6584.45654296875	50450.15625	45553.0859375	58064.7421875	79310.6796875	36814.48046875	45756.765625	52533.51171875	47745.546875	55969.9453125	59525.953125	56040.203125	58030.26171875	48869.2109375	45797.55078125	33289.765625	53966.515625	55139.06640625	65118.609375	59198.6484375	95961.21875	60256.38671875	53079.20703125	59898.125	59472.796875	39813.8515625	60617.8203125	56295.46484375	59265.1328125	40785.203125	55497.86328125	59656.14453125	33424.51953125	70446.140625	38569.9375	45283.7421875	48881.87109375	61075.91015625	73820.390625	40451.921875	35944.09375	54009.9140625	45118.92578125	49012.65234375	61332.265625	53722.63671875	60063.20703125	52709.58984375	45191.68359375	34131.44140625	54207.890625	54275.66015625	59864.41796875	57284.98828125	72808.2421875	55459.12890625	54332.875	55312.8125	56143.25390625	46771.2109375	58782.5703125	56385.5	54110.5625	41665.6484375	53102.609375	66295.5625	28871.876953125	64295.97265625	36150.1171875
150	180	10807.1435546875	21478.30859375	42148.9609375	44873.34375	52578.33203125	59470.2421875	23236.9765625	24904.53125	33091.6015625	29595.322265625	5169.322265625	49525.51171875	29731.255859375	52207.66796875	10668.7861328125	20247.5859375	40204.40234375	44697.4375	57766.90234375	58879.67578125	24408.0625	30406.71484375	28855.6015625	38305.984375	32524.28515625	75247.1875	1634.676513671875	8273.4287109375	37016.41796875	30160.634765625	4028.910888671875	7122.384765625	55477.94921875	42357.125	65349.74609375	87926.6015625	40903.9921875	50020.3203125	59266.44140625	52701.72265625	59043.03515625	67025.046875	60942.65625	63632.171875	52159.80078125	51766.19140625	32635.83203125	63584.859375	61766.89453125	68226.65625	63669.2578125	104122.734375	71096.3984375	53982.6328125	65701.8828125	64624.65625	40623.8515625	67751.296875	61649.8203125	64157.58203125	46406.9765625	61458.5703125	65801.5078125	35188.5859375	78019.0625	42936.5859375	53339.14453125	55935.62890625	65256.58203125	79457.3828125	42948.1640625	39960.41796875	60100.58984375	51190.84765625	56751.38671875	68518.0859375	60685.05859375	66522.0078125	57547.9140625	51311.68359375	36386.734375	62326.59375	60719.390625	64889.73046875	63853.828125	85126.84375	62111.25390625	64649.41015625	61092.69921875	63643.9375	47724.75	65861.046875	62559.61328125	64131.375	43863.1328125	60770.2890625	66729.46875	25613.990234375	74831.84375	36300.1875
180	240	11527.96875	21123.203125	42033.74609375	44463.09375	54907.109375	58745.75390625	27007.95703125	23948.048828125	30535.650390625	31152.205078125	4286.9609375	46031.80859375	31529.564453125	41347.07421875	10962.623046875	20551.927734375	40447.4375	45666.5625	60109.80078125	58660.5078125	27155.1640625	29373.6171875	31843.771484375	36035.890625	32353.271484375	56674.73046875	1162.912841796875	8258.1240234375	40731.734375	31320.771484375	2821.584228515625	7291.7783203125	55504.06640625	48655.859375	66015.453125	85845.84375	37702.89453125	50852.01953125	60950.33984375	51324.109375	57309.34375	65536.765625	61191.42578125	59842.2734375	54255.453125	51512.98046875	34286.25390625	60350.3515625	59362.34375	67275.4453125	62306.7421875	99776.46875	69934.984375	56238.23046875	66077.2421875	64617.9453125	44600.6953125	67239.421875	60768.6484375	64630.64453125	47134.54296875	61054.1328125	64884.9453125	35516.8515625	73080.7578125	43380.4765625	54318.2109375	49761.34375	66457.421875	76277.765625	41665.1796875	41242.09765625	60798.76953125	51422.34765625	56957.921875	67964.015625	61430.05078125	65359.734375	56585.84375	50449.74609375	37288.375	63361.48828125	58718.890625	64476.20703125	63289.33984375	82157.84375	63804.66796875	62788.234375	61355.8046875	63061.03125	46204.0859375	65233.33203125	61111.93359375	64961.16015625	45138.55078125	58834.78515625	68284.59375	27147.044921875	65578.4296875	36464.26171875
240	300	11441.8818359375	21962.890625	39867.49609375	43316.71875	52486.31640625	56282.28125	27858.822265625	23400.984375	29658.353515625	33104.51171875	2156.390380859375	47357.01953125	31903.99609375	37895.00390625	11459.796875	19998.95703125	38823.62890625	43477.03125	55439.07421875	55949.34765625	27576.0078125	28775.0625	29755.357421875	42785.98046875	31582.583984375	68965.78125	810.0132446289062	8127.64697265625	37898.16796875	28445.501953125	1856.34814453125	7346.39794921875	53443.6953125	45549.203125	62777.65625	75757.2734375	39627.7265625	47868.34765625	56806.53515625	49723.69921875	49748.4765625	60379.89453125	58042.6953125	57396.94921875	49497.62109375	50088.56640625	34314.2734375	57751.1875	57203.91015625	62602.796875	59249.6171875	88241.2421875	64612.2734375	56545.578125	61763.43359375	61929.30859375	42829.30078125	63903.43359375	57986.59375	61615.67578125	45476.9609375	59024.99609375	60860.2265625	34666.83984375	64595.828125	42583.13671875	49645.23828125	47595.78125	64132.6796875	71769.515625	39082.94921875	39437.33203125	58115.76953125	49877.9921875	50745.58203125	64632.8046875	54843.78515625	59374.09375	55483.37890625	48198.33984375	31464.267578125	56614.78125	55522.95703125	59126.265625	59720.8984375	74648.984375	59089.8046875	54893.453125	58176.0625	58323.3984375	48015.73046875	61810.07421875	57695.63671875	61834.40625	43123.66015625	57027.41015625	63086.0546875	26872.484375	60316.46875	35613.41015625
300	360	11974.990234375	20975.509765625	37594.328125	41637.83203125	48846.140625	52101.0390625	26555.005859375	22350.060546875	29307.109375	27827.34375	3008.593994140625	43691.0234375	28703.92578125	25326.732421875	11475.189453125	19919.76953125	36162.16015625	41945.4921875	53278.7578125	52365.078125	24512.08984375	27740.380859375	28760.576171875	36727.36328125	29470.4921875	39465.828125	541.7819213867188	8045.96337890625	33967.1015625	28148.22265625	1417.2520751953125	7308.779296875	49929.09375	43892.171875	56450.81640625	72972.625	36189.13671875	44457.11328125	53281.51171875	45921.91796875	45447.4609375	55416.046875	53084.14453125	51966.79296875	49205.98046875	46823.0390625	30642.453125	51470.18359375	51787.98046875	55395.62109375	55057.0234375	77513.5234375	59190.99609375	51166.30078125	57472.5078125	56219.48828125	37794.53125	58779.51953125	54192.62890625	58358.12890625	42254.25390625	53430.34765625	55676.7109375	33307.15625	60715.46875	40440.7890625	45688.875	45560.16796875	56601.21875	64010.0703125	37127.23046875	37370.08984375	54449.26953125	47519.5703125	47136.2578125	58290.890625	52578.59765625	54987.703125	51824.2109375	44584.640625	34157.25	56553.0625	52370.31640625	55487.7265625	54442.7109375	67551.875	54535.5546875	50693.015625	52522.8671875	55340.99609375	41150.44140625	57517.78515625	53073.1875	56855.5546875	41630.57421875	50797.6640625	59020.29296875	26871.16015625	53616.40625	33585.0703125
360	480	12067.796875	20624.416015625	33438.9140625	37591.4765625	44248.28515625	47414.33203125	24729.630859375	21961.5234375	27549.056640625	29664.822265625	2158.323974609375	37101.078125	27057.6171875	25399.255859375	11814.2421875	18921.0	32530.5234375	38732.83203125	46259.34765625	48097.48828125	26097.126953125	25430.26953125	29301.775390625	31925.4609375	28017.267578125	29952.0625	268.4159240722656	7914.5234375	29200.509765625	25913.763671875	884.6593017578125	7331.724609375	44061.51953125	43061.6640625	49695.9375	61091.8671875	35508.4921875	42209.90234375	47536.0	42182.6171875	43032.3359375	48915.890625	48859.36328125	44987.078125	43358.18359375	42809.28125	30411.607421875	49760.8515625	46704.8125	51725.4140625	50061.96484375	64331.51171875	52599.12109375	42718.42578125	51224.0078125	49721.08984375	36002.76953125	52678.74609375	47770.21484375	52398.5	39188.64453125	48013.55078125	49375.49609375	32690.88671875	54027.4609375	37445.79296875	42230.328125	37515.265625	51017.98828125	56465.1171875	37015.10546875	33987.6171875	49000.43359375	43343.76171875	40692.734375	52923.30078125	47331.765625	47766.07421875	47280.03515625	40188.04296875	31006.564453125	48299.4453125	44929.8203125	48369.2734375	47521.0703125	56242.06640625	48528.5546875	45606.55859375	47802.48828125	47600.28515625	42626.71875	51549.55078125	48663.77734375	51025.19921875	37877.50390625	45468.70703125	55192.32421875	25784.841796875	45777.8125	32178.087890625
480	600	12427.6005859375	19877.953125	29681.962890625	34574.484375	38132.54296875	42080.0546875	23956.205078125	20531.447265625	24325.7578125	29385.76171875	1127.1282958984375	35574.6796875	27290.451171875	19428.9609375	12319.0263671875	19052.900390625	28714.890625	35315.9609375	40334.484375	40911.171875	27283.138671875	23043.869140625	29222.662109375	30123.5703125	26554.265625	18374.685546875	25.805492401123047	7990.65771484375	26869.818359375	24028.349609375	614.2075805664062	7385.6923828125	38176.96484375	34905.6640625	43264.50390625	52523.25390625	32067.8671875	36932.734375	42215.6015625	37637.1328125	37046.5390625	41467.34765625	40917.40234375	39376.98828125	40365.88671875	38606.8984375	26990.46875	41178.4375	39189.90234375	43820.45703125	43522.7890625	51704.67578125	47359.6171875	39650.484375	44679.3515625	42288.3515625	34678.671875	45824.26171875	41922.484375	44949.1875	35419.69921875	42093.23828125	40951.09375	31332.453125	43031.47265625	33857.8515625	36355.68359375	35868.41015625	45709.93359375	49188.73828125	33409.57421875	30705.58984375	42841.5546875	38612.8828125	38306.4375	45983.3203125	40663.296875	41797.61328125	41685.57421875	36217.62890625	29505.107421875	42433.22265625	39842.6796875	41313.890625	41224.65625	44665.63671875	43033.77734375	39679.96484375	41376.2265625	41892.54296875	32796.24609375	44667.90625	41896.375	44708.73046875	34758.640625	40417.0390625	45608.73828125	25627.48828125	37011.83203125	29024.146484375
600	900	13056.208984375	19259.033203125	24691.732421875	29629.369140625	31064.978515625	34913.06640625	25062.12890625	19005.623046875	21698.734375	27335.587890625	-236.04531860351562	27206.89453125	24835.9375	15582.8798828125	12918.6884765625	18185.01953125	24027.67578125	31012.228515625	33793.65625	33293.671875	25243.884765625	20698.16796875	28445.365234375	28305.099609375	24607.533203125	16693.34375	-211.5179443359375	8139.1923828125	22225.650390625	22143.537109375	180.24072265625	7603.6708984375	32579.109375	30380.6640625	35791.0859375	42354.50390625	28579.837890625	31885.744140625	34176.578125	31779.826171875	29008.87890625	34611.41796875	33799.87890625	32326.931640625	34091.05859375	32037.91796875	24796.4921875	33501.8125	33001.72265625	36520.83203125	36675.765625	40727.34765625	38158.1953125	30595.708984375	37541.60546875	34456.046875	29379.349609375	37773.55078125	34660.1953125	37397.0390625	31024.064453125	34322.328125	35303.84375	29066.087890625	34056.078125	30135.298828125	30088.4921875	27375.00390625	35906.87890625	39955.1328125	30573.82421875	26689.66015625	35274.23828125	32764.451171875	29867.384765625	38570.3125	33619.51953125	34106.54296875	35809.29296875	30143.951171875	27420.494140625	35163.625	32488.515625	33550.0390625	34058.19921875	35925.86328125	34734.56640625	33134.1484375	33840.5234375	34304.390625	27666.484375	37260.30078125	35219.83203125	37220.16015625	29866.501953125	33325.1796875	38793.78125	22993.2578125	33516.2578125	25556.275390625
900	1200	14030.3212890625	18826.044921875	20026.650390625	25692.201171875	23604.94140625	27515.02734375	21904.373046875	17398.345703125	18835.134765625	23386.7109375	-818.1930541992188	20069.9609375	22559.734375	9631.642578125	13507.0478515625	18038.318359375	19601.845703125	25808.87890625	27171.48828125	26619.970703125	23214.953125	18302.201171875	23202.412109375	21563.9296875	23282.1328125	17209.255859375	-399.4833984375	8234.3720703125	17910.177734375	19875.076171875	514.1126708984375	7940.556640625	27034.154296875	24495.080078125	28854.5234375	34597.6640625	26010.26171875	27378.447265625	27673.806640625	26708.9609375	24810.33984375	27324.890625	26965.474609375	25942.15234375	27824.794921875	26288.62890625	21064.7734375	27920.80078125	26850.39453125	29529.705078125	28991.375	31542.23828125	31203.537109375	25894.1328125	30021.546875	27767.048828125	22796.205078125	30622.205078125	28011.484375	30880.5390625	25775.36328125	28047.26171875	34183.828125	24952.984375	30067.3515625	26226.82421875	24018.47265625	24628.296875	30274.064453125	32620.462890625	26344.220703125	22721.0546875	29061.029296875	27846.345703125	25322.169921875	31488.453125	28129.46484375	28327.0	29109.693359375	25241.49609375	22261.640625	28368.884765625	25524.5546875	27890.072265625	29077.732421875	28987.466796875	27968.177734375	26562.322265625	27920.482421875	28268.341796875	24846.9453125	31151.6484375	28722.125	30336.708984375	25072.232421875	27061.77734375	31058.15625	19583.34375	25083.837890625	22871.73828125
1200	1500	14245.404296875	17794.021484375	16815.74609375	21344.212890625	19928.64453125	21890.0703125	23497.2890625	15547.1796875	15997.3486328125	21285.837890625	-562.9620361328125	17343.728515625	20887.109375	10426.134765625	13726.20703125	16929.412109375	16519.560546875	22099.67578125	22132.33984375	22238.01953125	23754.927734375	15314.07421875	19710.39453125	17293.9453125	21166.880859375	14293.2978515625	-405.4297180175781	8157.0517578125	15086.828125	18156.921875	559.3826904296875	8203.1162109375	23128.05078125	21077.689453125	25116.265625	29260.71484375	23047.083984375	23439.439453125	23523.26171875	22893.701171875	21197.240234375	23208.810546875	24026.8125	22994.16796875	22544.03125	22565.0625	18473.91796875	23457.46484375	23875.79296875	26407.857421875	24693.603515625	26877.212890625	26371.17578125	20456.705078125	25579.583984375	23561.427734375	20471.16015625	26591.033203125	24139.466796875	26644.748046875	22155.751953125	24240.396484375	27782.46484375	23338.298828125	25664.8828125	23259.62109375	21217.056640625	19922.955078125	25902.947265625	26907.201171875	24481.2265625	20359.611328125	25161.064453125	24130.091796875	21175.826171875	26735.255859375	25002.744140625	23973.080078125	25674.888671875	21970.3515625	18936.4375	23727.865234375	23050.853515625	25203.505859375	25464.482421875	25626.2109375	24404.662109375	24759.037109375	23546.42578125	24225.79296875	22049.859375	26910.787109375	24708.20703125	25655.431640625	22192.533203125	23680.7890625	28915.37890625	16744.458984375	18869.908203125	19551.62890625
1500	1800	14151.6318359375	16945.2265625	14162.8896484375	18927.783203125	15672.8046875	18613.609375	21846.29296875	13903.3193359375	14037.01953125	18604.0078125	-936.7706909179688	9686.3076171875	17906.966796875	6846.2412109375	13757.91796875	16295.31640625	13788.0556640625	18620.1875	17102.44140625	18575.482421875	20155.8828125	13334.1689453125	19888.755859375	12615.46484375	19090.375	13736.0986328125	-469.7004089355469	8142.2001953125	11770.5234375	16964.94140625	551.91552734375	8348.5439453125	20292.265625	17155.56640625	21641.912109375	25365.3203125	19196.62109375	20458.203125	20180.853515625	19892.21484375	18911.24609375	19304.625	20515.4140625	19979.302734375	19288.5390625	19172.97265625	16510.240234375	20809.671875	20129.53125	25407.890625	22393.87890625	22654.6171875	23081.228515625	18064.779296875	21982.0703125	20031.3046875	18752.943359375	23094.3828125	20619.142578125	22734.5390625	19589.625	20674.02734375	23339.82421875	20877.61328125	23588.5390625	19845.36328125	17935.74609375	18584.67578125	22228.4296875	24430.71875	20073.939453125	17421.64453125	21886.158203125	21131.96484375	19017.521484375	22933.40234375	20791.30859375	20486.638671875	23313.23828125	18751.580078125	17065.9921875	19965.021484375	20336.150390625	21965.1875	21483.498046875	22427.193359375	20623.1875	20890.015625	20814.263671875	20765.373046875	18072.6171875	23481.6171875	21442.900390625	22014.984375	19484.66796875	20721.45703125	25699.87109375	14062.814453125	15367.0673828125	17040.173828125
1800	2100	14026.4951171875	15607.294921875	11964.81640625	15578.4736328125	12647.8203125	15257.7802734375	20196.05078125	13043.5654296875	12143.1552734375	15722.9951171875	-687.6512451171875	7905.7998046875	16104.50390625	7740.94775390625	13389.0615234375	15096.705078125	11793.6650390625	16097.865234375	14480.408203125	16441.419921875	18269.01171875	11600.056640625	15709.275390625	7794.69482421875	17342.080078125	6737.64990234375	-572.1651000976562	8079.3798828125	10309.0126953125	14895.451171875	855.8809204101562	8440.2978515625	17204.76953125	13799.607421875	18429.5859375	23140.65625	16757.26171875	18133.001953125	17430.44140625	17415.107421875	16284.5146484375	16847.369140625	18164.046875	17202.546875	17874.087890625	16937.466796875	13676.431640625	16578.189453125	18006.181640625	22081.73046875	18744.705078125	20022.720703125	18808.15234375	15952.5244140625	20193.98828125	17601.96875	14408.96484375	19449.109375	17454.15234375	19468.763671875	17100.45703125	18027.974609375	22678.0	17040.572265625	20487.23828125	17697.173828125	15125.1025390625	17185.73046875	19139.947265625	20859.314453125	17738.80859375	15104.2060546875	19683.826171875	18080.765625	17820.52734375	20545.275390625	18243.6015625	18605.783203125	19780.767578125	16380.0341796875	13090.994140625	17191.763671875	17473.568359375	19929.318359375	19006.72265625	18359.93359375	18772.1875	17880.744140625	18252.98828125	17929.470703125	16180.189453125	21021.42578125	18932.505859375	18653.744140625	16975.6015625	17884.1953125	22630.560546875	12665.7421875	15507.896484375	13832.0859375
2100	2400	13704.630859375	14409.4912109375	10357.3515625	13609.84375	11259.099609375	12429.7275390625	18322.333984375	10938.7236328125	9880.720703125	15081.9609375	-867.0093383789062	5570.443359375	14792.5703125	8022.19189453125	12898.974609375	14668.0478515625	10010.4609375	13400.6796875	12799.681640625	12866.0908203125	16926.619140625	9763.69921875	13278.708984375	6283.44775390625	15445.373046875	13370.25	-1020.7977294921875	7874.541015625	8852.9853515625	13991.0966796875	1243.7510986328125	8492.0908203125	15321.99609375	13752.7041015625	16263.4619140625	17766.32421875	15021.375	17014.451171875	14531.5390625	15749.0146484375	14481.3857421875	15112.5166015625	14704.8818359375	16391.875	15388.6630859375	14398.3203125	12671.5859375	15690.9638671875	15333.900390625	17434.03125	16242.1806640625	16148.279296875	16060.8984375	14131.21484375	16782.271484375	15980.4130859375	14791.279296875	16988.41015625	15405.3203125	16517.03125	15250.765625	15713.0634765625	20533.7265625	16233.1474609375	17488.8359375	15781.546875	13666.580078125	14771.337890625	17466.767578125	19283.1171875	15041.134765625	13978.908203125	17086.16796875	17048.845703125	14313.7529296875	19079.875	15460.142578125	16728.921875	17367.599609375	14818.5361328125	11376.0185546875	14890.6796875	15709.607421875	15557.3095703125	17091.314453125	18051.0234375	15861.0478515625	14631.962890625	15765.779296875	15655.9970703125	12668.2734375	19056.423828125	16457.80859375	15861.4921875	15264.490234375	16425.44921875	18925.32421875	12847.26171875	13882.8984375	13053.85546875
2400	2700	13094.1435546875	13587.7607421875	9018.0537109375	11591.6962890625	8347.048828125	10654.6064453125	16133.861328125	9993.6435546875	10018.970703125	10999.40625	-724.857421875	4273.99853515625	12794.4453125	3665.2197265625	12595.244140625	13143.05859375	8696.580078125	11847.6552734375	9993.7998046875	11082.5810546875	14231.9072265625	8981.466796875	10883.001953125	907.53662109375	13350.568359375	6962.4677734375	-1209.454345703125	7701.470703125	6855.40771484375	12824.9375	1325.03759765625	8423.732421875	13790.0859375	12684.4677734375	14314.8193359375	19286.650390625	13163.974609375	15052.98828125	13798.796875	13546.4130859375	13247.146484375	13444.3720703125	13852.0712890625	14881.1640625	13891.8701171875	12937.662109375	9619.337890625	14186.5517578125	14246.7197265625	14163.06640625	13582.9150390625	13815.3115234375	14008.5	11523.1806640625	14802.9697265625	14035.966796875	13259.43359375	15439.021484375	14197.7265625	14986.73046875	14089.9365234375	13857.7197265625	19589.98828125	15113.09375	18136.50390625	13082.71484375	12417.7353515625	12907.5322265625	15832.271484375	15835.166015625	13645.859375	12593.8203125	15216.91015625	15887.388671875	12722.8076171875	17209.30859375	13844.0205078125	15929.1337890625	14909.177734375	12783.908203125	8886.7666015625	12182.9111328125	14058.61328125	14409.8173828125	15006.10546875	14000.064453125	14047.0146484375	14379.80859375	13944.8583984375	13948.87109375	9627.1162109375	17511.3828125	14198.771484375	14401.0849609375	13937.33984375	14720.982421875	17069.15625	12941.482421875	13539.2060546875	11236.6953125
