frame_start	frame_end	parasubiculum	HATA	fimbria	hippocampal_fissure	HP_tail	presubiculum-head	presubiculum-body	subiculum-head	subiculum-body	CA1-head	CA1-body	CA3-head	CA3-body	CA4-head	CA4-body	GC-ML-DG-head	GC-ML-DG-body	molecular_layer_HP-head	molecular_layer_HP-body	Lateral-nucleus	Basal-nucleus	Central-nucleus	Medial-nucleus	Cortical-nucleus	Accessory-Basal-nucleus	Corticoamygdaloid-transitio	Anterior-amygdaloid-area-AAA	Paralaminar-nucleus
0	30	8.11693	0.41732	6.58692	4.15356	6.72802	8.86603	15.16147	3.10893	8.17882	1.84796	27.94511	3.67095	6.40201	1.6591	4.5956	3.14112	4.86256	3.25425	6.12326	1.70529	0.54734	1.34541	0.94888	0.60553	0.28076	0.32	1.01539	0.71818
30	60	2368.89605	2008.31584	2556.81041	2348.39189	2580.69464	2071.15973	2638.4788	2297.48574	2115.89406	1994.95989	1685.249	2615.37795	2099.94608	2170.07038	2038.09417	2135.11022	2158.12445	2177.56975	2164.31936	2127.82726	2718.98537	2278.27951	2441.4353	2198.2832	2752.08201	3141.4166	5327.0666	2015.38333
60	90	9439.80373	9398.70931	13270.27134	10629.15337	12009.54076	10485.19936	10757.70613	10532.19084	10258.98795	10007.4547	13325.40471	10521.15634	13911.60903	11055.64239	12545.73647	11388.92708	12246.52317	10505.53959	11784.71462	9848.13259	11735.93923	12600.86936	13589.97803	12174.40993	12090.09459	11364.20484	15792.68471	9469.27321
90	120	12852.15913	19198.35868	24192.01828	23518.87735	22006.6893	19472.48203	21670.55936	22734.33303	22985.51057	19361.77007	24132.08101	25483.61923	24532.39447	24658.41482	24474.57038	23551.39682	23905.21718	21804.89739	23392.1128	18005.03972	19965.6219	22493.45273	19217.52246	22872.70763	23437.86445	18940.43013	22107.89269	15961.76685
120	150	22375.92482	27524.34851	33358.31081	32134.97905	29886.14517	29933.92346	30357.18095	28543.34617	30210.51246	30552.47397	30785.12305	37019.1314	31849.10736	35468.83054	31409.69319	35388.48793	30938.35358	31876.56636	30576.02055	28000.38112	30108.30352	31170.2314	30806.75439	28925.75841	30832.49879	26972.19979	35538.19434	27563.99512
150	180	25075.02869	30982.61262	37932.38431	37081.99858	31775.05735	35226.92844	33910.79861	39355.6884	37138.88868	34145.96294	41648.94819	37338.78103	40261.43637	40128.30986	39536.05082	38686.80902	38455.59459	36779.24713	38072.75988	31840.78265	33184.22354	42642.81846	40601.10791	34928.1863	35100.74129	28730.38123	30354.45979	30882.33633
180	240	26074.61301	30218.53232	39744.87185	36259.63165	32538.94529	36474.84574	34605.72015	35822.80964	38910.78827	36138.45126	38101.82768	36992.09174	39186.56508	38411.57932	40153.11247	38078.52453	39526.75133	37346.94462	38165.83716	34770.51413	35791.09152	36907.51816	33966.92236	32503.01683	36350.27761	28015.93596	34035.05555	32772.59367
240	300	26905.74315	29588.57479	40295.70203	38690.02503	32755.36278	36472.17869	35563.04675	37764.02553	36946.41161	35679.83323	35148.74068	40895.89527	37913.04754	40611.10029	39692.8742	39198.53091	38984.93941	38104.45753	37393.43065	35572.90289	37897.23644	39843.35039	35746.26221	36581.52704	38043.98308	29370.072	36656.13879	33198.51604
300	360	26772.21927	27255.38146	38150.79554	35234.53118	29788.63698	35260.5409	32850.02482	35049.76286	36050.7543	34502.55618	36257.71536	34903.02193	36894.66433	37214.78756	38024.6983	36820.28616	37653.65528	35729.25919	36229.2176	36382.40575	35058.11113	40165.95278	35673.80762	32144.02284	34076.25565	26623.696	31876.91406	32119.77081
360	480	23285.6322	27183.10292	37002.19121	34500.18366	27520.29853	33922.46286	34056.4347	35032.43034	35306.10238	32793.70598	32243.81583	33536.27604	33483.22338	34780.8018	35567.75717	34082.18346	35679.12057	34328.51912	34720.62187	33568.34891	33449.00121	35033.87578	32333.4834	29827.73362	32391.2217	25974.24919	30979.80681	31406.33198
480	600	21510.88808	25089.29763	30180.21458	31222.64572	23587.42744	29969.42341	31224.45452	32991.14992	30798.652	30369.75865	29072.60067	31921.64055	28730.76036	32562.16826	30363.12709	31631.15475	30556.80458	32031.69194	30777.36283	33030.09132	31346.16184	33548.44814	31656.41943	30115.36238	31290.84794	24301.79023	30703.32744	28225.99902
600	900	20115.89656	21722.96376	28071.87468	27336.55548	21065.52427	27395.71975	26962.10134	28854.37313	28199.94484	26161.32679	25494.07422	25764.93927	26202.24033	28493.59074	27457.9375	27492.67225	27718.4567	27911.48122	27304.96374	30466.82551	28118.38768	28510.93574	27015.46436	27409.27419	26955.68172	21724.41836	25614.8866	25915.94615
900	1200	18244.01253	18699.07053	23478.95312	23338.36901	18044.78718	23912.56262	22835.87718	25379.71405	23785.65385	22591.56628	21594.98053	22084.92976	22624.94859	23291.4898	23080.79143	22990.14698	23042.9253	23780.11281	22838.27913	25409.56349	24625.66941	24718.94429	22947.98828	23287.91451	23144.2983	19037.99841	20939.41464	22732.0159
1200	1500	15211.83676	16181.23671	21074.9033	19836.19816	15070.85495	20435.92364	19699.48991	22512.75182	19185.64527	18479.24685	18686.66054	18795.46968	19713.46239	19447.32727	19266.17715	19336.17737	19508.41294	20058.73028	19430.59665	22526.46753	20058.79762	20819.01519	20926.86133	20961.38251	18679.12712	15734.48799	17742.82419	19619.0267
1500	1800	13410.4044	16523.89022	17609.47356	15712.51718	12347.3257	16504.76878	15359.52479	17086.05802	15363.3148	15621.08276	16202.01033	16503.24485	16842.83379	15603.29549	16084.18467	15939.83737	16189.01532	16110.04334	15871.14958	19481.29579	17247.13491	18445.37544	18802.80811	18735.06746	15761.25313	13705.95382	15725.56922	17158.2928
1800	2100	11661.01897	14003.59378	15160.7109	14274.25338	11414.25157	14814.27889	14416.21814	16048.77368	13795.54515	13731.96066	14305.98682	15127.01553	15430.90324	14190.9085	14098.03147	14389.40505	14081.91067	14700.73366	14259.48059	15636.31685	14400.15381	16171.82324	16320.41821	17152.39085	14811.61119	13082.6661	12791.24937	13919.68186
2100	2400	9455.70894	14140.11957	12952.98581	12368.29418	9863.27305	11479.56972	11773.27702	13381.26191	12126.65123	11462.88579	13189.47016	13337.71533	13544.48538	12640.84976	12787.02805	12602.49587	12642.21638	12197.87058	12537.23637	13833.65816	12135.15558	13833.53806	14872.05957	14058.10374	12399.2788	11174.11576	10705.60363	11214.24431
2400	2700	9070.23739	12651.81052	11072.59949	10373.10702	8654.16968	10909.35433	9654.70417	11534.63947	10088.13394	10763.55128	12220.55235	12174.36976	11915.61522	10695.00568	10536.49458	11186.65046	10434.33732	10817.75933	10459.68325	13191.47663	11062.59847	14849.72961	14883.4978	14181.43404	11736.1137	10424.4965	10607.77404	9690.1002
2700	3000	8156.40951	11492.31511	10322.51413	10169.67291	8329.22348	9745.59148	9940.65442	10621.68888	10159.53841	9039.64815	10751.84101	11743.21125	10397.33943	10213.48609	9895.38773	10175.46645	9964.49688	9930.28733	10038.26112	9783.53132	8896.29223	11804.30522	12192.51562	13664.63274	10291.26497	9169.34225	8862.57231	8745.8649
3000	3300	7161.12899	9289.63596	9282.57932	9231.45562	7658.87925	8432.45497	8376.35365	9231.37352	9723.94809	8147.16734	10542.42717	10234.59737	10308.94766	9938.16637	10000.48538	9707.57366	9751.98314	8749.37207	9584.94655	9733.54431	7883.44322	11353.00889	11697.56299	11094.90452	9240.56019	7828.39692	7507.97738	7413.66896
3300	3600	7116.56477	8827.58049	8270.42048	7809.1066	7602.53431	8607.14481	6800.32364	8431.32589	7039.44631	7840.127	9733.4627	9380.20276	9400.98795	7550.98696	7677.61616	8209.33663	7647.56484	8002.34324	7768.17761	8760.25361	7330.02369	11557.34128	12450.35327	10497.51007	8896.15806	8376.49142	6960.4314	6917.93018
3600	3900	6624.02618	10056.86629	8003.71084	6761.55372	6631.76684	5955.75648	6162.68046	7148.98814	7168.95264	7241.27406	8349.48194	8102.79968	8158.57113	6587.56015	7836.27656	7154.75658	7666.5304	6859.01711	7186.81812	7247.89089	6559.00829	8070.86823	8522.16187	8025.37853	7646.38957	7347.17666	7175.19737	5053.20403
3900	4200	5616.78405	7342.94437	7221.13744	7111.48199	6608.11518	7073.39636	6714.95334	6856.2095	6944.23994	7038.84749	8460.25151	9052.95515	7888.27001	8381.57126	7214.33805	8176.49482	7188.06787	7405.48298	7169.41533	7560.80923	6758.03688	6804.36643	6758.61914	7448.00894	6976.53434	6211.42128	7001.24167	6063.5458
4200	4500	4802.68285	7607.73634	7792.2401	6066.46819	6473.89228	4798.26416	5948.96089	5778.33635	6005.85602	5120.49241	6922.82933	6737.83179	7357.26375	5002.64683	6728.11179	5007.90251	6823.2438	5248.40259	6489.39872	6387.81085	5584.88116	8134.63167	7335.6543	9656.49647	7112.23794	5978.3358	5231.50607	5840.24473
4500	4800	6368.22474	8418.16362	5642.99956	6155.35359	5710.95178	5791.33908	6053.67522	5436.19128	6391.94739	6678.89004	7511.85453	7465.95306	6657.90712	6402.00428	5836.32744	6900.68179	5857.86453	6281.10117	6238.42838	5989.97817	5578.87122	6485.76129	6854.70105	8366.46653	6385.74274	6446.86629	4897.36102	5657.34932
4800	5100	4751.01017	7854.06717	6362.05514	6631.81483	6014.72792	4956.67221	7031.66399	4969.94627	6782.85603	6380.30543	7508.49348	7570.19023	6933.01328	7151.22429	6397.01905	7106.55377	6749.17432	6259.79089	7135.36013	5378.95363	4606.57622	8337.07075	9190.53223	6750.54748	5872.83812	5718.58796	4520.41511	3728.14931
5100	5400	4152.71196	5279.42454	4732.15637	5785.17006	5397.49745	5619.44363	5758.41375	6651.02063	5932.24735	5631.80271	6911.80166	4961.29096	5744.53141	5597.66752	5048.58241	5478.92042	4956.5389	5601.22236	5343.00945	7167.77098	4926.8758	3618.01711	4069.42059	4880.73922	3595.10423	4011.21239	3132.84572	6060.85379
5400	5700	5555.31984	4293.79003	4895.95725	5935.55167	4550.0303	7085.03846	6578.76404	5637.26179	5076.84478	5102.61343	4663.2759	4815.85456	4044.47637	5048.71853	4669.18671	5760.16881	5037.4229	5459.43539	5363.97985	5034.92165	4425.96977	4527.08091	4831.13257	6825.0715	5690.84286	4676.75597	4356.09355	3916.89982
5700	6000	5105.3287	4389.70335	5793.04863	4794.06531	4728.4	5528.60286	4617.2744	4191.04602	3927.44792	5536.81101	6388.55977	4750.77771	5600.82505	5322.32271	4422.437	5562.09205	4662.63769	4993.6211	4546.56825	4529.06193	4649.66153	7130.59585	7358.46912	6696.90655	5194.56104	4654.06422	5917.88432	3115.28698
6000	6300	3263.62482	6076.10859	4332.93982	5045.77059	4453.82703	3428.47522	4497.13173	4465.69644	5335.99126	4920.39605	8126.06886	4848.66148	5922.64556	5680.14139	5143.7577	5479.58548	5113.99298	4640.30717	5385.63997	5288.398	4877.67192	6828.8668	6782.63574	5869.6428	5984.26648	4979.07656	3813.87891	3490.07501
6300	6600	5226.16446	4067.2978	4696.23616	4500.7119	4977.46268	4861.44346	4996.69272	5522.31516	4601.32278	3967.89246	6294.455	5079.3375	4855.05225	4314.06066	4748.73452	3863.84411	4561.56069	4589.70636	4852.7172	5093.29494	3224.83825	7190.88467	8227.79407	7403.67	4103.28663	3949.00003	3944.31158	3606.64576
6600	6900	4152.94794	5745.98426	5942.40543	4623.89708	4410.88502	4013.06611	4708.20725	3288.75809	4581.51818	3913.35341	3949.91143	7475.88007	5272.41243	4973.11762	5091.79652	5174.14954	4817.29814	4210.803	4368.8836	3482.33764	3573.82742	8828.81515	8695.72681	6190.82197	5718.1194	5255.88051	5161.71261	1896.83778
6900	7200	6133.8845	4740.62526	7307.92709	5276.05439	5546.97547	3682.8897	3097.91916	3657.92678	4640.08622	5591.6966	8197.41338	6787.5181	7888.82783	7355.13895	7539.55573	6338.03014	6900.43974	6026.37098	5927.92456	4891.4124	3265.17581	5154.56996	4928.66467	5232.73359	3588.55185	3539.19608	5375.09682	2715.62084
