frame_start	frame_end	Left-Cerebral-White-Matter	Left-Cerebellum-White-Matter	Left-Cerebellum-Cortex	Left-Thalamus	Left-Caudate	Left-Putamen	Left-Pallidum	Brain-Stem	Left-Hippocampus	Left-Amygdala	CSF	Left-Accumbens-area	Left-VentralDC	Left-choroid-plexus	Right-Cerebral-White-Matter	Right-Cerebellum-White-Matter	Right-Cerebellum-Cortex	Right-Thalamus	Right-Caudate	Right-Putamen	Right-Pallidum	Right-Hippocampus	Right-Amygdala	Right-Accumbens-area	Right-VentralDC	Right-choroid-plexus	AirCavity	Skull	Vermis	Pons	CSF-ExtraCerebral	Head-ExtraCerebral	ctx-lh-bankssts	ctx-lh-caudalanteriorcingulate	ctx-lh-caudalmiddlefrontal	ctx-lh-cuneus	ctx-lh-entorhinal	ctx-lh-fusiform	ctx-lh-inferiorparietal	ctx-lh-inferiortemporal	ctx-lh-isthmuscingulate	ctx-lh-lateraloccipital	ctx-lh-lateralorbitofrontal	ctx-lh-lingual	ctx-lh-medialorbitofrontal	ctx-lh-middletemporal	ctx-lh-parahippocampal	ctx-lh-paracentral	ctx-lh-parsopercularis	ctx-lh-parsorbitalis	ctx-lh-parstriangularis	ctx-lh-pericalcarine	ctx-lh-postcentral	ctx-lh-posteriorcingulate	ctx-lh-precentral	ctx-lh-precuneus	ctx-lh-rostralanteriorcingulate	ctx-lh-rostralmiddlefrontal	ctx-lh-superiorfrontal	ctx-lh-superiorparietal	ctx-lh-superiortemporal	ctx-lh-supramarginal	ctx-lh-frontalpole	ctx-lh-temporalpole	ctx-lh-transversetemporal	ctx-lh-insula	ctx-rh-bankssts	ctx-rh-caudalanteriorcingulate	ctx-rh-caudalmiddlefrontal	ctx-rh-cuneus	ctx-rh-entorhinal	ctx-rh-fusiform	ctx-rh-inferiorparietal	ctx-rh-inferiortemporal	ctx-rh-isthmuscingulate	ctx-rh-lateraloccipital	ctx-rh-lateralorbitofrontal	ctx-rh-lingual	ctx-rh-medialorbitofrontal	ctx-rh-middletemporal	ctx-rh-parahippocampal	ctx-rh-paracentral	ctx-rh-parsopercularis	ctx-rh-parsorbitalis	ctx-rh-parstriangularis	ctx-rh-pericalcarine	ctx-rh-postcentral	ctx-rh-posteriorcingulate	ctx-rh-precentral	ctx-rh-precuneus	ctx-rh-rostralanteriorcingulate	ctx-rh-rostralmiddlefrontal	ctx-rh-superiorfrontal	ctx-rh-superiorparietal	ctx-rh-superiortemporal	ctx-rh-supramarginal	ctx-rh-frontalpole	ctx-rh-temporalpole	ctx-rh-transversetemporal	ctx-rh-insula
0	30	12.051019668579102	22.22509002685547	11.759174346923828	6.109210014343262	42.63669204711914	1.6716814041137695	5.801419734954834	18.559051513671875	5.845040321350098	-9.894367218017578	3.8989498615264893	49.7639045715332	-8.36097526550293	65.31343078613281	15.394134521484375	29.328231811523438	15.084501266479492	4.641279697418213	44.032249450683594	-10.865032196044922	-3.863445281982422	6.221665382385254	2.8063504695892334	-44.2476921081543	-2.1299734115600586	13.479048728942871	14.61149787902832	9.59753704071045	4.693660736083984	6.99084997177124	10.439236640930176	18.0909366607666	58.02156448364258	36.8875732421875	5.243000030517578	3.8891732692718506	0.17717744410037994	28.439464569091797	-10.868729591369629	8.462421417236328	21.920480728149414	9.619733810424805	49.46446228027344	-5.803866863250732	23.07900047302246	27.330551147460938	85.81792449951172	-5.343191623687744	1.030497670173645	-23.452611923217773	49.656192779541016	0.003486804896965623	-1.8159327507019043	91.11944580078125	9.967154502868652	-8.052481651306152	37.13848876953125	3.9189562797546387	2.4696719646453857	7.425684928894043	-5.72766637802124	8.825343132019043	-27.337427139282227	36.64484405517578	43.262107849121094	-3.547619104385376	-1.9917210340499878	7.273521423339844	17.237850189208984	-6.444045066833496	50.7597541809082	3.9023191928863525	13.067813873291016	3.8868467807769775	24.470783233642578	-1.1582436561584473	83.41361999511719	-13.928924560546875	-8.262232780456543	20.34564781188965	-31.13442611694336	-6.126522541046143	9.282174110412598	-15.501965522766113	9.12287712097168	-13.770011901855469	-2.024052381515503	-21.222688674926758	12.751762390136719	19.756074905395508	24.110946655273438	25.08744239807129	24.836814880371094	-16.72182846069336	12.346070289611816	-6.9818854331970215	37.338600158691406	11.450589179992676	24.37330436706543	-12.361515998840332
30	60	1076.9556884765625	1585.1124267578125	2625.6884765625	3025.29541015625	2980.437744140625	4259.865234375	2643.167724609375	2720.964111328125	1938.7298583984375	3447.9375	685.2652587890625	10262.1689453125	3119.4833984375	13815.4423828125	1223.9000244140625	1390.56396484375	2753.5693359375	3017.154541015625	3065.889404296875	3242.84033203125	2941.82763671875	1081.5706787109375	4599.8603515625	6784.7392578125	3045.190673828125	12696.318359375	-64.89088439941406	589.0657958984375	2517.775146484375	2305.393310546875	2513.875	404.10650634765625	4368.31005859375	4800.01318359375	3295.201904296875	4492.51416015625	6789.94580078125	2506.27978515625	3250.16259765625	3109.515625	2343.265380859375	3567.1005859375	3308.34765625	2574.11962890625	4003.363525390625	2732.014404296875	3167.688720703125	3499.69384765625	4184.19921875	1301.67041015625	4245.9697265625	4932.38232421875	3593.7177734375	4714.36767578125	3803.57666015625	3547.069091796875	5086.2255859375	4440.86572265625	3825.20947265625	2656.036865234375	3440.685791015625	4637.24609375	1345.6363525390625	208.8323974609375	7398.7998046875	5841.87060546875	3935.603271484375	5981.26611328125	4061.54638671875	4091.537109375	4321.345703125	2868.523193359375	3096.516357421875	2593.17333984375	3630.523681640625	3445.08349609375	3660.009521484375	3402.03076171875	4393.1669921875	2690.66162109375	2589.64404296875	3246.293212890625	4012.834716796875	925.7321166992188	4068.149658203125	4243.435546875	3459.246337890625	3428.668212890625	3416.35546875	3540.0947265625	2878.81201171875	3906.663818359375	3457.824462890625	3339.405517578125	3252.69970703125	3913.47998046875	1031.622802734375	2983.41455078125	9897.83984375	5713.8388671875
60	90	5242.69921875	8563.474609375	15843.435546875	16411.88671875	18522.162109375	21145.37890625	13698.3505859375	10777.154296875	11926.05078125	12257.6220703125	4874.4931640625	16155.125	11063.4931640625	70413.28125	6003.94677734375	8582.5546875	16272.2763671875	15822.7705078125	15438.5078125	17962.833984375	15107.89453125	11933.3857421875	13167.037109375	25301.708984375	11561.27734375	50674.2265625	-372.9693298339844	2664.333740234375	15522.5498046875	11308.8974609375	10479.37890625	1900.2598876953125	19536.48828125	19714.052734375	21788.12109375	27358.12109375	18820.630859375	15138.8486328125	18775.119140625	17434.279296875	11986.021484375	23903.951171875	17778.46484375	20698.935546875	19417.16015625	16036.4345703125	14874.53515625	18469.892578125	22629.125	10100.6103515625	23140.203125	40717.109375	20018.603515625	22914.580078125	22296.59375	21054.1015625	23651.8203125	23469.138671875	20397.904296875	19017.94921875	17291.107421875	22474.265625	3179.878173828125	4032.672119140625	30869.75390625	21440.17578125	22229.25	18291.537109375	19332.421875	27744.3671875	13082.0859375	14732.1640625	17826.1328125	16840.306640625	17800.080078125	23377.259765625	18529.150390625	19381.33984375	20893.48046875	14630.9921875	13137.4638671875	19464.548828125	18120.55078125	8794.5478515625	21159.416015625	29702.890625	21616.904296875	14865.80078125	19082.72265625	18110.083984375	22189.970703125	21551.08984375	19951.73046875	19687.841796875	15342.505859375	19987.53125	7684.3251953125	10225.5478515625	35682.37890625	21896.673828125
90	120	9727.765625	16094.8720703125	28541.109375	28704.0078125	35896.61328125	38497.50390625	26342.912109375	18020.529296875	27149.919921875	20188.79296875	8025.80419921875	26740.8671875	19599.685546875	149550.875	10937.4091796875	14566.314453125	29643.505859375	29748.296875	34445.62890625	36477.8046875	25877.697265625	22842.748046875	25078.291015625	32622.76171875	19163.7265625	108619.4453125	-540.2415161132812	4563.1279296875	33300.0390625	19375.9140625	17398.7578125	3322.643798828125	41463.625	29978.154296875	42586.93359375	56173.0234375	25388.4453125	31061.408203125	37662.52734375	32202.072265625	18336.63671875	47617.5234375	32848.34765625	36766.0	37481.2890625	31146.0078125	25034.16015625	38815.77734375	41679.34375	19328.53125	42233.29296875	71852.1640625	39517.3984375	41479.69140625	40419.11328125	38418.17578125	41950.20703125	44605.78515625	39017.24609375	38484.52734375	31305.9140625	43229.08984375	12384.4912109375	11192.0859375	49702.25	36923.16015625	38398.6796875	34186.93359375	40939.69140625	52473.5078125	23078.14453125	29146.33203125	36779.82421875	28746.8671875	27963.57421875	45819.60546875	31511.87109375	36928.12109375	40198.5390625	27711.51171875	18083.39453125	38933.7578125	30503.349609375	18615.8984375	40175.109375	60872.4140625	40957.234375	27394.56640625	36346.8046875	35196.97265625	36424.52734375	40465.8515625	37143.9765625	40043.73046875	29831.466796875	37532.44140625	10681.5791015625	15485.7939453125	61466.19921875	36510.48046875
120	150	14510.2216796875	23527.287109375	43688.7109375	45478.48046875	51926.85546875	59541.4609375	39699.62890625	26957.572265625	38489.55078125	31662.416015625	12485.5078125	48922.08984375	27819.259765625	174333.171875	16189.775390625	21690.623046875	43055.33203125	45572.515625	50704.74609375	55139.16015625	37399.65234375	33532.71484375	31601.6015625	50869.23828125	30503.25	130289.390625	-1105.0931396484375	6379.8544921875	45558.91796875	29335.169921875	23158.0546875	4477.02734375	56319.9609375	49562.859375	62422.76171875	83447.78125	35629.06640625	45750.7265625	57315.94140625	49081.84765625	25425.15234375	71275.671875	48843.359375	54481.859375	53148.01171875	46129.09765625	32573.724609375	56912.73828125	61134.47265625	27965.38671875	63490.31640625	108165.875	57142.45703125	60939.58203125	64017.73046875	57399.53515625	62168.4375	67683.1015625	59023.4296875	56238.49609375	46712.50390625	65683.203125	18851.736328125	13505.9951171875	69130.5859375	54172.82421875	60645.2734375	48302.58203125	60477.6640625	74051.046875	36619.50390625	43089.87109375	53448.48046875	43303.15234375	39600.1875	69089.0625	46847.78515625	53033.19921875	58288.81640625	43879.89453125	31019.34765625	55993.125	48445.67578125	26020.880859375	61925.890625	90998.03125	59050.34375	44001.37890625	55641.546875	52417.11328125	52681.8359375	60932.06640625	55609.703125	61264.3671875	43824.40234375	56517.65234375	15778.044921875	26457.16015625	94943.90625	51818.96484375
150	180	16934.5	26343.73828125	49981.92578125	52713.64453125	64331.546875	70303.0	44784.1640625	30210.40234375	45931.359375	34369.5703125	13652.453125	38737.80859375	28511.400390625	223815.578125	18543.669921875	24946.9921875	51316.30859375	51921.9140625	58418.48046875	65835.515625	42153.0390625	39892.84765625	32219.822265625	53122.40234375	31732.302734375	168655.0	-1282.371826171875	7038.18359375	55660.359375	34027.8984375	24497.744140625	5023.18994140625	67772.8046875	48894.4296875	73076.203125	91863.6875	35619.2890625	55182.5546875	64728.8359375	57282.57421875	29223.74609375	83328.8359375	53896.82421875	61937.3203125	62479.4296875	54084.0625	37251.18359375	67572.4140625	69911.0625	29674.3046875	74340.203125	127599.5859375	67941.703125	64728.43359375	74877.5	65401.92578125	69699.4453125	78381.7734375	67518.8046875	67266.5703125	54751.37890625	73752.625	18946.962890625	18018.923828125	80883.328125	56390.12109375	61476.99609375	55448.66015625	73087.78125	90342.7109375	32285.94140625	51763.64453125	66091.5234375	51239.57421875	49549.796875	81848.875	50708.546875	61003.7734375	65968.0390625	52143.10546875	32955.0390625	69543.7734375	53660.41796875	28999.361328125	71144.0234375	103382.9375	71770.1015625	52125.44140625	64857.51953125	62684.87109375	67636.0	71876.59375	64284.91796875	73313.6015625	50362.59375	65300.95703125	22454.501953125	28895.69921875	101742.953125	59106.15234375
180	240	17933.6875	27693.890625	52553.10546875	55616.47265625	66126.0546875	72479.8515625	50048.640625	30476.130859375	44153.80859375	37597.6875	11783.3115234375	44533.953125	31062.736328125	223725.96875	19141.478515625	25261.982421875	52952.93359375	55948.27734375	64238.2578125	69175.265625	46954.45703125	41196.0234375	37131.51171875	53759.46484375	32975.171875	173272.296875	-1130.7772216796875	7172.35107421875	56552.453125	34570.89453125	23253.787109375	5185.17041015625	68990.6875	55353.82421875	76416.734375	96459.1875	36701.16796875	55118.35546875	70292.2265625	60282.96484375	34441.2890625	85604.75	55206.2578125	66097.875	64366.06640625	57164.65234375	42079.46875	71149.625	71621.4453125	33558.109375	77473.390625	125804.53125	71080.921875	69379.8984375	78635.0703125	69593.3984375	74642.5390625	81715.2734375	70905.8984375	71969.203125	56257.71875	77173.0625	21639.1640625	21802.47265625	81010.5	59276.78125	71943.59375	54637.09765625	74123.0859375	93883.4609375	34708.8046875	54255.69921875	69867.75	53711.33984375	54595.4453125	84610.390625	50992.51953125	63260.30078125	72916.484375	55204.72265625	37149.1328125	72178.4921875	55540.85546875	28956.5	72487.7421875	107334.140625	73952.9296875	52924.52734375	67402.2578125	66307.0859375	62233.234375	74541.9765625	67296.015625	77338.4609375	53932.9375	69365.140625	25435.390625	30223.421875	99747.8046875	61054.74609375
240	300	18306.396484375	28528.521484375	51574.1875	56820.5	66288.28125	73202.8671875	45575.046875	31648.01953125	45391.33203125	41703.92578125	8481.1142578125	53670.1484375	30557.890625	218229.25	19308.12890625	26248.591796875	52328.171875	58295.41796875	66097.5078125	68975.3359375	46725.28515625	41032.97265625	36456.1328125	42788.0	34298.25	156291.28125	-1224.705322265625	7301.66064453125	53067.18359375	34836.828125	20379.109375	5448.9375	68166.390625	52551.91796875	74980.671875	91529.28125	29999.03515625	56695.94921875	69034.8671875	60734.109375	30141.16796875	83067.15625	54777.6796875	64838.44140625	63164.15234375	57138.04296875	38727.609375	70466.4453125	68817.703125	30934.53515625	74439.1875	117076.7109375	69917.40625	67755.6171875	74452.2109375	67481.5	72576.8359375	80511.609375	70105.8203125	72953.0390625	56334.6484375	77509.4375	22099.271484375	23682.017578125	77578.171875	58764.54296875	70025.9921875	55713.80078125	72836.046875	90147.453125	38944.22265625	54237.85546875	69807.6484375	56293.828125	52114.6953125	83660.609375	51889.23046875	62749.56640625	70356.1640625	55382.09375	36606.51953125	67582.9765625	55465.08984375	30936.611328125	71492.0	101092.0703125	70047.15625	56231.80078125	68196.1015625	64821.28125	59809.453125	73315.8515625	66980.546875	75039.4921875	53989.921875	69146.90625	26759.34765625	34940.796875	91996.5	60558.7421875
300	360	18666.19140625	26831.814453125	49474.6640625	54765.6640625	61938.15625	71895.65625	45565.99609375	33454.98046875	41803.9765625	39267.75	6869.8681640625	47028.5546875	32054.47265625	199037.40625	19109.693359375	26131.41796875	50307.9453125	56162.4375	64254.4609375	64463.5078125	47464.12109375	40445.67578125	36485.703125	52012.96875	32953.44140625	145515.265625	-891.43896484375	7217.68115234375	48873.203125	33601.046875	17585.24609375	5555.6337890625	63616.5546875	52667.93359375	70832.25	83736.09375	32128.146484375	52150.015625	64863.87890625	58456.11328125	34707.0546875	76953.5078125	51186.7734375	60599.60546875	61019.25	55355.21484375	38943.6796875	66391.2109375	65258.96484375	33541.62109375	70580.8046875	99020.296875	65837.34375	63615.15234375	69686.6875	62807.59765625	69515.6796875	74936.921875	65446.3515625	68136.90625	53492.73828125	70532.484375	26189.5859375	25545.84375	71670.8359375	56739.68359375	64736.1015625	54022.60546875	69273.3671875	82201.2421875	38108.3984375	51903.4296875	67002.234375	55664.6171875	48136.00390625	77600.90625	49660.1015625	57287.34765625	66534.359375	53727.48828125	37772.58203125	68517.2578125	51806.9375	32226.478515625	67466.9375	90540.390625	66009.640625	52221.50390625	62244.73828125	60565.78125	63607.16796875	70091.34375	63280.73828125	70962.3203125	53014.984375	65417.98828125	27768.326171875	38954.1875	76729.8515625	56948.875
360	480	18287.71875	26260.541015625	45283.99609375	52810.66015625	57805.41796875	66451.2578125	44753.7265625	31871.16015625	40389.52734375	36941.7890625	3271.4755859375	43220.15625	31627.994140625	161733.421875	18707.916015625	25614.79296875	45492.73828125	53137.3125	58741.95703125	61119.12109375	45413.359375	39897.29296875	35976.39453125	48841.75	31203.98828125	124334.6640625	-584.423583984375	7378.7109375	45223.9453125	33506.16796875	13800.1337890625	5810.3642578125	56109.45703125	49825.421875	62932.43359375	72707.96875	31909.390625	48340.80078125	58706.33984375	53323.875	34575.98046875	66846.8125	48944.671875	53147.1875	57833.03125	51637.4765625	38503.18359375	59002.62890625	58704.6875	31817.08984375	62600.23828125	87341.1640625	59490.703125	59656.3671875	61782.3515625	55910.3984375	59890.16015625	66975.7265625	59338.4921875	61749.23828125	50351.72265625	62379.1796875	25504.32421875	28002.21875	58409.40625	52451.30859375	58867.4453125	48588.65234375	62242.625	74270.2265625	40391.66015625	48385.71484375	60446.76171875	50606.46484375	47339.6484375	69254.71875	47837.23046875	52067.0390625	60254.8828125	51011.33203125	37224.75390625	58356.421875	48865.51171875	30434.298828125	59840.11328125	74920.8125	59271.33203125	48617.0859375	56967.45703125	54894.89453125	56435.48828125	62904.015625	57157.796875	63524.953125	47813.33984375	58071.3671875	27985.904296875	35368.69140625	65902.0234375	53554.57421875
480	600	18159.220703125	25369.95703125	39716.1328125	48384.23046875	51481.3125	57739.265625	40297.71875	30539.728515625	34362.67578125	38146.90234375	983.7278442382812	49895.859375	31079.384765625	129451.453125	18261.482421875	25352.5546875	40345.11328125	48757.37109375	53083.78515625	56082.1875	39534.55078125	34781.28515625	38356.4375	47535.8671875	31738.267578125	89146.203125	-377.8963317871094	7616.02685546875	36607.0625	30778.509765625	10183.8603515625	6142.376953125	48098.00390625	44131.69921875	54478.0234375	58827.47265625	34812.59375	42552.6875	50825.5234375	47527.484375	34191.2265625	55690.20703125	44931.7890625	44564.24609375	50629.47265625	45370.56640625	35781.5	49479.6171875	49006.203125	32329.248046875	53565.125	66700.078125	51243.57421875	50350.30859375	52006.7109375	48127.36328125	51297.40625	57169.2421875	51491.02734375	53709.765625	44647.40234375	53251.69921875	29402.9921875	28359.001953125	49976.5859375	46612.90625	49997.421875	43494.18359375	52814.41796875	62045.32421875	41445.0	41090.65234375	53144.80078125	46228.62109375	44324.6640625	59191.65234375	43480.4765625	43845.48046875	53386.87890625	44941.7265625	33970.41796875	51758.109375	43286.46875	31148.966796875	51207.328125	58953.1328125	50076.78125	44868.40625	47765.05078125	47147.0859375	46158.8359375	53985.3671875	50369.84375	54493.71875	42861.60546875	49915.44921875	31270.021484375	36545.08203125	55528.0546875	46205.3125
600	900	18440.748046875	24355.029296875	32697.693359375	42612.5625	41768.3125	46177.6875	36862.21875	28063.697265625	28559.49609375	34757.04296875	-1165.2813720703125	44108.109375	30472.939453125	90678.4453125	18428.984375	24322.1171875	33056.5546875	41513.2109375	41927.76953125	44579.30859375	35768.4140625	28898.376953125	35758.78515625	38883.71484375	30560.365234375	64985.125	-148.9029541015625	7953.9052734375	29149.626953125	28389.216796875	7277.5380859375	6862.64794921875	37658.02734375	38262.90625	42467.078125	45892.51953125	31737.15625	34778.6953125	39484.671875	39358.89453125	31638.8828125	42072.4609375	37334.4453125	34834.7421875	42274.16015625	37751.16015625	30827.666015625	38946.95703125	38760.0	30184.173828125	42645.45703125	44096.1875	39422.21484375	39482.37890625	39838.734375	37704.8515625	40511.046875	44980.28515625	40845.625	42508.30078125	36017.84375	41074.9375	30979.734375	29478.912109375	38426.15234375	38303.53515625	37731.83203125	35616.85546875	41182.9296875	47326.13671875	37871.40234375	34640.8671875	42282.24609375	38575.12890625	35628.46484375	45950.375	35977.55859375	33592.2578125	42866.3984375	36423.046875	29577.2578125	40316.78515625	35198.51953125	29283.318359375	40093.875	43048.53125	37894.3125	36752.21875	38372.42578125	37858.859375	37481.734375	43495.4140625	40028.28515625	41886.046875	34935.76171875	39784.94921875	32669.037109375	34754.3125	37070.37109375	38206.5703125
900	1200	18588.224609375	23644.18359375	24513.677734375	34451.2421875	31011.54296875	34671.6328125	31894.423828125	23573.580078125	23857.265625	29377.1015625	-1494.6759033203125	31879.328125	26693.73828125	50363.03515625	18351.359375	23426.9296875	24975.525390625	32716.505859375	31289.869140625	34416.203125	30610.025390625	24007.67578125	29949.28515625	33433.49609375	27094.8125	43098.66796875	-79.57708740234375	8466.2744140625	20759.625	25871.35546875	5349.5595703125	7736.93359375	26502.67578125	27925.53125	31482.470703125	32038.77734375	27057.599609375	26628.060546875	28452.3125	29784.94140625	26111.4609375	29681.732421875	28737.025390625	25067.70703125	31681.6953125	27853.916015625	26322.98828125	27689.39453125	28197.74609375	24624.455078125	31229.66015625	26795.232421875	28347.345703125	30067.501953125	28266.4453125	27637.576171875	29206.2265625	33307.05078125	30196.501953125	30972.615234375	28046.9921875	29443.03125	27096.990234375	26540.7578125	25431.5390625	30623.986328125	29190.09375	28858.986328125	29807.326171875	33201.9609375	32453.556640625	25883.732421875	31484.486328125	30223.1796875	26731.583984375	33230.21875	28563.146484375	25383.73046875	32350.84765625	27365.83203125	25347.634765625	28479.04296875	26154.30859375	24127.37890625	29987.42578125	28188.119140625	27543.697265625	28408.853515625	27981.001953125	27153.99609375	27588.431640625	32155.95703125	30223.564453125	30460.216796875	26945.263671875	28939.19921875	28345.208984375	31679.4921875	28635.685546875	28190.751953125
1200	1500	18586.6640625	22036.341796875	19075.677734375	27319.373046875	21567.65625	26206.7890625	28718.28515625	20551.794921875	18942.23828125	23956.173828125	-1202.234375	23806.19140625	25031.546875	23349.52734375	18248.5859375	22222.06640625	19381.69921875	26013.146484375	23155.623046875	25763.818359375	28128.794921875	18856.943359375	26687.517578125	25221.26171875	23839.802734375	21517.138671875	-72.09983825683594	8923.4287109375	15839.515625	23252.1796875	4589.6611328125	8286.3671875	20676.189453125	21986.427734375	23261.048828125	23924.08984375	24117.70703125	20885.685546875	20923.482421875	23081.576171875	19983.67578125	21761.74609375	22683.123046875	18197.91796875	23893.205078125	21501.578125	21379.947265625	20217.267578125	21470.021484375	20839.140625	23768.3671875	17948.556640625	20588.96875	21614.71875	19819.30859375	20767.119140625	21935.26171875	25213.81640625	22454.435546875	22305.326171875	21337.076171875	21713.748046875	25330.416015625	22849.376953125	20809.693359375	23104.80078125	21285.095703125	21826.865234375	22619.7265625	25304.7265625	27915.23046875	20822.39453125	23687.380859375	24059.951171875	21820.76953125	24831.42578125	21981.7578125	19269.046875	26009.58203125	20707.146484375	18973.294921875	21092.849609375	20032.90234375	19647.703125	23172.68359375	19862.01171875	19767.806640625	22544.27734375	21040.638671875	21243.697265625	20634.400390625	24634.294921875	22860.279296875	21490.99609375	21333.7421875	21643.0859375	26220.634765625	25040.84375	19309.962890625	21868.06640625
1500	1800	17983.544921875	19870.703125	15310.2138671875	21395.41796875	16440.19921875	20110.662109375	24527.1875	16644.771484375	14505.07421875	20279.16015625	-356.03955078125	18025.02734375	22546.685546875	4888.06689453125	17748.138671875	20533.98828125	15388.5400390625	20601.650390625	16515.638671875	19540.568359375	24398.828125	15977.96484375	20901.0625	22812.119140625	22133.458984375	1364.215576171875	58.704952239990234	9089.873046875	12753.7392578125	20912.759765625	4444.82421875	8739.013671875	16159.9072265625	17865.626953125	17087.7109375	18505.251953125	20270.74609375	16585.00390625	15565.21484375	18786.96484375	15261.373046875	16385.01171875	18376.896484375	14737.849609375	19046.13671875	16799.10546875	15114.3408203125	14795.8427734375	17239.564453125	18454.828125	18239.076171875	13138.5322265625	15169.576171875	17626.791015625	14780.8662109375	16354.3515625	17271.185546875	19239.984375	16796.478515625	16144.798828125	16538.37109375	16283.6630859375	24799.546875	20083.421875	13766.224609375	18810.125	17303.240234375	17618.46484375	16949.525390625	19525.03125	22457.73046875	17038.7421875	17950.7109375	19254.423828125	16331.84375	19458.08984375	18283.552734375	15907.33984375	19863.078125	15710.5966796875	14896.76171875	15745.2412109375	16266.25	18275.9921875	18178.595703125	13722.61328125	13778.544921875	16943.962890625	16160.6357421875	15656.2685546875	17545.630859375	19347.373046875	17660.724609375	15106.5751953125	16305.32421875	17235.8359375	22627.12109375	21069.712890625	15117.140625	17467.30859375
1800	2100	17115.515625	17818.5703125	12544.8369140625	16992.767578125	11905.021484375	15302.8623046875	22244.72265625	13702.6396484375	13295.693359375	15999.4169921875	628.0253295898438	13922.3291015625	18837.09765625	1307.9820556640625	16720.14453125	19020.7421875	12574.021484375	16362.9423828125	12746.953125	14520.1962890625	22663.3359375	13792.259765625	16857.76953125	13047.3291015625	19272.5546875	2433.421142578125	-44.56235122680664	9010.029296875	10178.220703125	18893.16796875	4653.62060546875	8867.8125	13605.6640625	10146.5498046875	12320.3505859375	15142.474609375	16315.603515625	13672.7724609375	11847.8486328125	15247.0771484375	11360.5595703125	12839.9462890625	16478.84375	12678.3076171875	14093.9951171875	13338.9033203125	14441.603515625	9822.328125	13450.4833984375	15231.138671875	14996.978515625	10395.990234375	11766.5205078125	12090.0927734375	10801.6220703125	12540.1689453125	14348.34375	14899.0927734375	13045.6845703125	11780.6181640625	12938.7470703125	12268.806640625	22167.953125	17414.275390625	12469.57421875	15399.64453125	13698.728515625	16202.771484375	13445.056640625	14219.4677734375	18460.150390625	14800.1923828125	14096.6962890625	15867.7861328125	13065.95703125	15805.6650390625	14915.341796875	12420.05859375	16164.6630859375	12887.619140625	12796.3271484375	10534.7099609375	13579.3818359375	14947.333984375	14505.833984375	10198.4892578125	11030.087890625	14382.1708984375	12383.9462890625	12551.3916015625	13974.9404296875	15352.3017578125	13226.0458984375	10894.4306640625	13221.861328125	13277.9921875	19192.814453125	17522.234375	10991.4423828125	13612.9033203125
2100	2400	16386.71875	16734.484375	10131.6669921875	13299.0439453125	9241.2607421875	12782.9814453125	19251.923828125	11275.6142578125	10865.033203125	12759.6982421875	1357.7462158203125	7613.556640625	16967.986328125	-6279.18896484375	15977.5400390625	17038.0234375	10389.2421875	13180.6787109375	9550.7294921875	11612.6044921875	19483.607421875	12262.8046875	14651.6064453125	9348.5185546875	16568.19140625	-13981.56640625	107.19685363769531	8996.8369140625	8836.9365234375	16575.279296875	4876.6640625	8932.134765625	10508.7431640625	9041.5537109375	10205.423828125	11094.7470703125	13401.884765625	12252.947265625	8987.552734375	12288.849609375	8946.7421875	10356.92578125	13331.1630859375	8727.703125	11215.3212890625	10913.8056640625	10762.9365234375	6496.828125	11096.24609375	12881.7509765625	12108.2294921875	7616.4638671875	8876.9228515625	10458.1455078125	7949.68701171875	10459.642578125	10275.037109375	11915.1435546875	9641.794921875	7746.57958984375	10201.388671875	9745.30078125	17986.375	14843.0380859375	8999.2666015625	12750.0107421875	11676.546875	12157.97265625	9940.994140625	12140.9404296875	16325.294921875	13078.8505859375	10979.0078125	13260.3505859375	9377.9541015625	12104.9111328125	13017.6025390625	10438.6279296875	13754.0859375	10315.5078125	10342.0205078125	8072.1943359375	10992.064453125	12617.115234375	11407.5693359375	8292.5205078125	7488.4091796875	11099.705078125	9655.2392578125	9340.75390625	13978.912109375	12385.8564453125	10439.533203125	7886.11669921875	10326.400390625	11013.8837890625	17750.712890625	14860.1572265625	9174.453125	11101.5615234375
2400	2700	15389.8896484375	15191.78125	8865.5400390625	11346.05859375	6308.53662109375	10185.697265625	17906.890625	9459.2783203125	9251.2724609375	12770.4326171875	1631.8455810546875	6970.96044921875	14384.0126953125	-9108.203125	15097.673828125	15421.0673828125	8863.2255859375	11301.1591796875	7308.78662109375	9717.5986328125	16288.47265625	10066.9033203125	12503.525390625	11730.0087890625	15034.1396484375	-9670.27734375	-13.11031723022461	8894.4970703125	6979.45703125	14749.2529296875	5005.17431640625	8964.1611328125	8907.287109375	8291.98828125	7713.45849609375	11552.451171875	12303.8447265625	10176.921875	6961.54638671875	10194.90234375	6798.87841796875	8701.4697265625	10821.55078125	7744.75439453125	9429.9873046875	8862.7783203125	8611.3857421875	5708.98388671875	8933.8095703125	9239.7275390625	9707.623046875	4453.66845703125	6441.78125	8019.8486328125	6248.65380859375	8141.28662109375	9909.359375	9849.1904296875	7768.36376953125	6811.16162109375	8480.359375	8086.50146484375	16065.919921875	12376.5576171875	8471.6025390625	10302.267578125	10510.5673828125	9817.046875	8126.3896484375	7367.4443359375	14710.939453125	10866.9970703125	9077.8720703125	11300.189453125	7549.25927734375	10193.1650390625	10788.5166015625	8347.3818359375	11585.4072265625	8071.982421875	6012.84814453125	6144.98583984375	8802.1201171875	10153.7255859375	9073.6767578125	7044.81494140625	5453.50439453125	8709.591796875	7627.984375	7935.1962890625	10349.6337890625	10236.900390625	8202.818359375	6028.58056640625	8604.8349609375	8864.2080078125	14278.0390625	10188.1435546875	8090.59130859375	8778.9228515625
