frame_start	frame_end	Left-Cerebral-White-Matter	Left-Cerebellum-White-Matter	Left-Cerebellum-Cortex	Left-Thalamus	Left-Caudate	Left-Putamen	Left-Pallidum	Brain-Stem	Left-Hippocampus	Left-Amygdala	CSF	Left-Accumbens-area	Left-VentralDC	Left-choroid-plexus	Right-Cerebral-White-Matter	Right-Cerebellum-White-Matter	Right-Cerebellum-Cortex	Right-Thalamus	Right-Caudate	Right-Putamen	Right-Pallidum	Right-Hippocampus	Right-Amygdala	Right-Accumbens-area	Right-VentralDC	Right-choroid-plexus	AirCavity	Skull	Vermis	Pons	CSF-ExtraCerebral	Head-ExtraCerebral	ctx-lh-bankssts	ctx-lh-caudalanteriorcingulate	ctx-lh-caudalmiddlefrontal	ctx-lh-cuneus	ctx-lh-entorhinal	ctx-lh-fusiform	ctx-lh-inferiorparietal	ctx-lh-inferiortemporal	ctx-lh-isthmuscingulate	ctx-lh-lateraloccipital	ctx-lh-lateralorbitofrontal	ctx-lh-lingual	ctx-lh-medialorbitofrontal	ctx-lh-middletemporal	ctx-lh-parahippocampal	ctx-lh-paracentral	ctx-lh-parsopercularis	ctx-lh-parsorbitalis	ctx-lh-parstriangularis	ctx-lh-pericalcarine	ctx-lh-postcentral	ctx-lh-posteriorcingulate	ctx-lh-precentral	ctx-lh-precuneus	ctx-lh-rostralanteriorcingulate	ctx-lh-rostralmiddlefrontal	ctx-lh-superiorfrontal	ctx-lh-superiorparietal	ctx-lh-superiortemporal	ctx-lh-supramarginal	ctx-lh-frontalpole	ctx-lh-temporalpole	ctx-lh-transversetemporal	ctx-lh-insula	ctx-rh-bankssts	ctx-rh-caudalanteriorcingulate	ctx-rh-caudalmiddlefrontal	ctx-rh-cuneus	ctx-rh-entorhinal	ctx-rh-fusiform	ctx-rh-inferiorparietal	ctx-rh-inferiortemporal	ctx-rh-isthmuscingulate	ctx-rh-lateraloccipital	ctx-rh-lateralorbitofrontal	ctx-rh-lingual	ctx-rh-medialorbitofrontal	ctx-rh-middletemporal	ctx-rh-parahippocampal	ctx-rh-paracentral	ctx-rh-parsopercularis	ctx-rh-parsorbitalis	ctx-rh-parstriangularis	ctx-rh-pericalcarine	ctx-rh-postcentral	ctx-rh-posteriorcingulate	ctx-rh-precentral	ctx-rh-precuneus	ctx-rh-rostralanteriorcingulate	ctx-rh-rostralmiddlefrontal	ctx-rh-superiorfrontal	ctx-rh-superiorparietal	ctx-rh-superiortemporal	ctx-rh-supramarginal	ctx-rh-frontalpole	ctx-rh-temporalpole	ctx-rh-transversetemporal	ctx-rh-insula
0	30	35.2867431640625	61.145103454589844	22.810401916503906	68.24501037597656	15.532195091247559	44.629302978515625	41.972896575927734	32.74688720703125	81.69544219970703	355.1062316894531	91.58950805664062	295.4461364746094	114.80511474609375	-273.0165100097656	35.32491683959961	37.91080856323242	44.41436004638672	19.81852149963379	9.506196975708008	114.51905059814453	44.23193359375	56.28820037841797	209.1517791748047	380.5730895996094	8.783658981323242	-278.5421142578125	13.75399398803711	17.36237144470215	65.83039093017578	84.4575424194336	112.44420623779297	23.482267379760742	25.748300552368164	109.2645263671875	31.048250198364258	73.83475494384766	138.85586547851562	84.35693359375	-31.25462532043457	3.6807219982147217	126.36416625976562	20.111560821533203	154.61781311035156	22.160552978515625	204.1830291748047	29.10711097717285	121.3194808959961	-37.903621673583984	134.24501037597656	14.926831245422363	28.380393981933594	293.58575439453125	-9.44170093536377	-6.28879976272583	56.05462646484375	63.159873962402344	102.74554443359375	42.68487548828125	88.8697509765625	-54.62259292602539	72.54772186279297	104.45475769042969	-42.69362258911133	-24.98136329650879	42.263057708740234	183.1082305908203	94.6512222290039	79.4427719116211	14.948040962219238	-49.02649688720703	56.071773529052734	31.823108673095703	47.21680450439453	12.270760536193848	146.1381072998047	-37.23972702026367	152.90621948242188	28.187427520751953	202.91787719726562	38.57223892211914	-6.874208450317383	15.91063404083252	-25.994211196899414	101.12039947509766	13.35012435913086	68.13581848144531	50.8066520690918	112.97480773925781	30.91707420349121	91.89495086669922	26.089502334594727	49.89434051513672	60.34883117675781	-55.359745025634766	126.41500091552734	79.08110046386719	234.3426055908203	10.119720458984375	430.2772216796875	275.2950134277344
30	60	1851.5372314453125	2772.267578125	6601.857421875	7221.24560546875	7664.5361328125	8718.1484375	4214.76904296875	4426.55419921875	6829.39599609375	3905.717041015625	2757.051025390625	12372.64453125	7195.9775390625	22926.009765625	1979.90380859375	3039.28173828125	6760.9609375	7103.6396484375	8191.6064453125	8247.962890625	5866.392578125	5099.17041015625	3524.05517578125	10268.8310546875	5049.32177734375	17879.732421875	564.9285888671875	988.3380737304688	6215.18505859375	4417.64404296875	5555.716796875	1201.717041015625	10198.3447265625	9582.84375	10517.7001953125	14391.2392578125	5916.2119140625	7235.6455078125	8633.1328125	5976.220703125	8492.865234375	10408.49609375	9171.4814453125	11471.1298828125	9433.9482421875	7540.31396484375	4267.7607421875	7148.2890625	12062.9140625	4157.8232421875	9914.0009765625	16182.8466796875	8587.6962890625	9412.5234375	8662.0625	8396.4814453125	13533.9677734375	9876.46875	9470.38671875	7337.5341796875	7471.384765625	10523.025390625	4160.01806640625	2610.540771484375	13925.2890625	10403.7294921875	10898.2314453125	8426.7578125	9180.6943359375	12236.2392578125	4999.06005859375	5893.3671875	7540.19140625	5384.140625	10499.0625	8754.1796875	9224.27734375	10024.556640625	8018.5888671875	6488.9169921875	6953.5634765625	7136.08984375	8942.5634765625	3690.81787109375	9467.5498046875	15835.4365234375	7102.60791015625	10377.7373046875	7911.47607421875	8367.9130859375	8106.4072265625	9288.6806640625	8429.7080078125	6270.52685546875	6812.71044921875	8293.0703125	5454.1279296875	3445.0673828125	19195.857421875	11067.1953125
60	90	5600.0986328125	9620.203125	21277.029296875	22535.404296875	26613.9609375	27483.73828125	12536.8935546875	13935.27734375	19018.78125	15883.9541015625	7181.3681640625	23234.61328125	15657.419921875	64327.55078125	5939.56787109375	10749.3828125	21152.484375	21830.126953125	27672.900390625	27823.212890625	14287.21875	17136.083984375	14672.73828125	24758.443359375	15840.3056640625	29896.234375	1807.88818359375	2887.734619140625	18649.0859375	13729.9111328125	10525.486328125	3958.174072265625	27769.7578125	23357.37890625	34089.39453125	38622.41015625	17363.38671875	21715.16796875	28150.427734375	21627.6875	29632.400390625	30495.400390625	26245.224609375	34170.60546875	27685.708984375	24588.697265625	14478.6025390625	28736.197265625	32664.26171875	15618.064453125	32098.404296875	52132.453125	29127.9609375	26869.470703125	30085.64453125	29043.87109375	32703.892578125	33592.45703125	30444.619140625	26632.11328125	22833.48046875	30764.412109375	22611.88671875	12090.4912109375	41464.58984375	26717.23828125	35532.28125	21068.916015625	32284.0390625	40279.25390625	17460.017578125	18315.515625	26414.072265625	19440.986328125	28383.302734375	30339.1796875	26076.62890625	31598.302734375	27239.376953125	22421.337890625	16069.546875	24135.283203125	29864.544921875	16015.244140625	28236.173828125	42591.69140625	28653.7578125	31974.884765625	26957.650390625	29081.609375	25591.302734375	30734.59375	29873.158203125	25910.021484375	21213.517578125	26392.25390625	24490.224609375	15934.134765625	48358.0390625	26978.423828125
90	120	9057.4658203125	17482.83984375	37363.58203125	39916.484375	51291.42578125	51126.8671875	21272.509765625	23072.5390625	31861.060546875	24402.35546875	9500.3486328125	44699.51171875	29876.625	113792.59375	9558.3896484375	17549.50390625	36302.96875	38596.4453125	51227.62890625	50703.37109375	23060.76171875	28731.78125	26164.251953125	30170.451171875	27457.287109375	89300.796875	3047.2802734375	4566.92919921875	36143.5390625	26038.71875	14195.13671875	6654.60205078125	50315.7265625	34417.4453125	61118.7265625	67481.484375	30726.88671875	41345.75	51775.859375	39798.06640625	51040.6015625	53252.39453125	52732.16015625	59492.9296875	48120.28125	45313.78515625	25776.59375	48779.49609375	59274.21484375	35978.7265625	58478.87109375	95431.0390625	54549.52734375	49928.46875	55512.9609375	54403.28515625	47496.9453125	63971.671875	55940.07421875	50770.2578125	42802.02734375	55387.84375	50999.3203125	26700.62109375	62451.0234375	43486.48828125	56477.8828125	43914.24609375	56502.41015625	65655.7578125	33038.42578125	35810.3515625	48900.8125	37530.71484375	50474.6171875	57259.8671875	49380.15625	56090.02734375	55436.8359375	40205.56640625	32901.0234375	47795.38671875	53944.1875	42696.2265625	54705.03125	78086.0390625	51290.25	58188.26953125	51571.75390625	54777.79296875	51949.92578125	59385.56640625	55204.76953125	47627.79296875	41270.4765625	50240.140625	57946.8203125	30681.439453125	81926.671875	43467.55859375
120	150	12631.5234375	24795.962890625	55156.33203125	61084.28515625	73919.8671875	77225.421875	29541.15625	32291.701171875	47276.984375	35669.3515625	7876.72998046875	57858.84765625	39677.5	146995.765625	12218.896484375	24969.47265625	52763.515625	59930.49609375	75972.53125	79446.0390625	26873.134765625	44224.35546875	42592.55859375	35613.2109375	39649.3203125	115227.8046875	4899.6572265625	5693.09619140625	47577.53125	39396.30859375	15914.4775390625	9297.1259765625	85263.9609375	61721.765625	92694.0390625	107176.6015625	44638.7578125	63021.70703125	76369.40625	65052.86328125	78102.4140625	81988.640625	83331.6796875	87753.0625	72989.6640625	66399.0859375	40168.43359375	72670.4375	88877.796875	72856.15625	85104.2734375	144101.171875	79521.4140625	74523.46875	82022.609375	76812.7890625	66731.7265625	97313.1796875	81269.9296875	79020.7265625	63377.9296875	80523.640625	94765.0625	47461.18359375	97644.4921875	64368.61328125	79972.90625	69706.2265625	86819.8828125	103795.7109375	53148.8828125	59158.46484375	74932.828125	60697.85546875	79706.671875	89628.4765625	77204.0859375	77512.9921875	83772.2578125	64425.90234375	41307.5546875	73425.140625	81141.078125	84414.4609375	84243.0703125	125341.171875	80978.3515625	84463.7265625	77077.609375	85061.28125	74403.9140625	88412.1796875	82695.0703125	76861.4140625	63382.8046875	75230.953125	102642.78125	48356.09375	122596.8125	60981.93359375
150	180	14442.0029296875	28113.056640625	63088.8671875	69684.421875	86658.15625	91576.7734375	36199.59375	37197.63671875	55487.7265625	37421.9375	6081.21044921875	66503.7578125	45372.43359375	146347.515625	13790.3994140625	28493.3046875	60231.67578125	67923.1875	86126.625	88078.578125	34223.79296875	49418.984375	41423.4140625	45729.30078125	43845.171875	156393.171875	3986.727294921875	6550.73388671875	66361.6640625	44881.1953125	12688.1064453125	10128.203125	93938.2578125	71527.9921875	103120.6640625	114067.859375	58166.29296875	68761.1328125	89946.5390625	72930.3125	84960.34375	96130.6796875	92324.7578125	103801.578125	79952.09375	79111.75	43957.88671875	82701.4609375	101115.1875	72767.0234375	96334.6953125	160901.734375	90558.796875	87157.28125	92699.4140625	88742.5	73775.34375	110052.078125	93366.5625	94355.609375	71573.7265625	92891.2734375	100772.640625	55541.08984375	114552.265625	69246.234375	86181.484375	74448.09375	99715.0546875	119099.5234375	48718.84375	67402.4921875	89458.96875	72637.6640625	86423.3671875	102549.6171875	86028.71875	89613.8359375	92884.234375	75181.421875	46894.5078125	85402.25	91315.8671875	87340.8125	96353.6171875	146031.953125	91300.7578125	95300.6875	88052.3203125	100820.3671875	78521.609375	100506.5546875	94950.0546875	91035.5078125	70981.1953125	85517.0625	107984.0703125	54657.96484375	125711.0859375	64448.62890625
180	240	15913.2734375	30397.02734375	64556.65625	71023.1953125	91698.2578125	92352.828125	33978.41796875	38472.671875	52296.17578125	40223.07421875	6988.56591796875	67101.15625	45866.4609375	157963.71875	15188.94921875	29975.6953125	61881.72265625	70168.453125	91399.859375	91982.6171875	32599.28515625	53714.1171875	44957.25390625	52003.6484375	45775.484375	133118.359375	4502.7744140625	6657.41943359375	62313.375	45573.77734375	11252.1796875	10669.5595703125	96271.4609375	70241.390625	106615.15625	122977.5390625	58180.5078125	74636.6171875	91917.3515625	77445.84375	84072.84375	97737.484375	93661.8984375	103426.875	86693.4140625	81118.75	47257.875	84684.6328125	100006.3515625	78009.875	97668.296875	159291.609375	93311.4140625	84844.53125	95958.9296875	90931.8203125	74307.9296875	113390.5859375	95595.3828125	98540.203125	74909.6484375	94442.4140625	104394.984375	55406.3203125	113915.0390625	74356.1328125	98065.34375	79473.5546875	102697.265625	119039.0078125	55073.31640625	72214.484375	93199.671875	76456.046875	90209.8984375	107319.421875	85172.9296875	94268.71875	94312.4453125	77812.0703125	52666.0703125	88716.015625	92172.9921875	90639.7421875	96994.546875	145232.109375	95178.328125	99778.9375	91703.640625	100547.4375	80275.609375	104812.6171875	97906.8671875	98837.3359375	74785.0625	88870.03125	113730.984375	55523.09765625	122575.3828125	68738.6328125
240	300	16999.765625	30644.703125	63525.0859375	70905.65625	86640.0234375	91171.3671875	36189.890625	39022.1484375	52883.76953125	42966.734375	5321.46435546875	73921.0546875	46185.80078125	106734.7421875	16357.6962890625	29175.416015625	61432.3046875	70691.3046875	87450.890625	91373.421875	36577.48046875	51882.48046875	48065.3125	51385.3125	45895.98046875	105050.609375	4025.077880859375	7006.986328125	64313.29296875	44671.22265625	8135.03271484375	10824.0771484375	93639.7265625	72593.59375	102993.09375	117848.15625	59196.640625	73568.3046875	89668.7265625	78238.9453125	75016.484375	94210.9921875	92459.2421875	99806.0625	84174.640625	80879.8515625	50624.72265625	86632.4375	98843.09375	82846.484375	93979.8125	153355.78125	91974.71875	86607.2890625	93771.8671875	90087.0	75871.390625	109864.1015625	94361.0546875	96736.984375	74317.9609375	92648.9375	102887.125	59360.859375	106768.5546875	71135.6171875	92588.640625	75702.90625	99193.8359375	118446.1796875	55880.08984375	70244.8671875	92350.8125	75864.875	90496.71875	106144.328125	83685.296875	93596.859375	86948.8828125	77866.328125	50422.046875	88803.453125	89147.671875	87835.0546875	97492.171875	134345.140625	95896.3125	97008.9140625	89355.2734375	100633.7265625	76444.03125	101900.875	96029.328125	95780.703125	74171.2734375	87400.3671875	114565.078125	56902.97265625	123109.8515625	67792.671875
300	360	17116.095703125	29429.017578125	61347.4921875	72121.640625	86310.71875	88224.0	37927.32421875	38535.65625	52966.78515625	45677.85546875	4500.025390625	78556.1875	43965.41796875	90330.8046875	16187.6005859375	29773.818359375	58587.5546875	68594.3203125	84278.03125	86627.5625	39008.3515625	52155.02734375	51679.4765625	53391.0546875	45001.1953125	108769.984375	3504.535888671875	7059.33154296875	61432.5078125	44454.27734375	7050.44189453125	11077.9033203125	87436.7421875	71518.625	98289.84375	114197.7578125	60578.93359375	71757.984375	85308.8359375	74214.703125	72159.0703125	89484.1328125	85609.203125	94321.6171875	78995.921875	76838.6484375	50012.8671875	82724.6328125	92163.4140625	74040.7421875	87834.8515625	136740.9375	87506.9765625	78277.7109375	87565.171875	84622.046875	70408.7109375	102050.3515625	89474.8125	91129.8671875	71883.890625	86708.453125	93799.1484375	57819.859375	96866.15625	69779.3828125	86452.453125	72539.28125	94251.6796875	108535.7421875	56971.9375	68796.9453125	87750.375	72300.265625	78355.0546875	100186.1015625	78896.5546875	86624.8671875	88711.359375	73552.1328125	49271.03125	82485.890625	86133.7890625	84971.453125	89840.984375	122823.0703125	91392.546875	89727.4609375	84271.1328125	93880.8203125	75189.140625	97019.5	89674.75	92385.9140625	72850.2421875	83124.453125	102708.828125	56265.86328125	107429.0703125	66022.4375
360	480	18036.484375	29469.50390625	54459.0078125	65527.6875	74603.171875	78272.421875	39510.671875	36624.56640625	45965.6015625	44552.484375	1691.2156982421875	60947.4765625	44538.4375	85804.5	17266.619140625	28550.853515625	52711.22265625	64060.046875	74992.4609375	76225.96875	38879.45703125	46780.44140625	46499.13671875	49195.3046875	43601.859375	78501.5859375	3909.10595703125	7417.5361328125	54865.22265625	40509.73828125	5487.93994140625	10900.830078125	76120.0859375	63709.15625	85971.8203125	99039.8515625	54214.125	65056.94140625	75150.171875	66767.6875	66376.46875	77904.140625	75165.5859375	81414.9765625	72830.3828125	70160.53125	49088.453125	73651.90625	79841.7734375	65784.1328125	75642.0859375	111875.515625	78000.4296875	71395.1875	78662.2890625	75251.5078125	64889.1796875	90129.875	78829.734375	81933.9453125	64033.6953125	76415.0	84313.0703125	55844.6640625	85178.515625	63721.05078125	76046.1171875	66565.8046875	81302.390625	95282.25	54166.69921875	61903.0234375	78276.0390625	65719.96875	72473.875	87849.703125	69762.9453125	76261.328125	77854.3125	67071.765625	49539.296875	75715.2265625	73119.8828125	72413.6484375	80853.921875	103022.484375	80293.1171875	77114.8046875	75078.9453125	83126.3828125	68548.2734375	84579.671875	79134.78125	82619.140625	65552.421875	73747.5859375	88932.9375	53014.3515625	91708.0078125	59959.4296875
480	600	18045.099609375	28086.25390625	46688.3203125	58783.953125	64486.484375	67185.265625	36674.92578125	34605.7265625	40220.83203125	44565.99609375	-1699.7423095703125	61523.12890625	40456.1875	71845.078125	17836.4609375	28195.71875	45217.79296875	56755.44921875	62774.4921875	65478.25	39253.27734375	37976.58984375	45555.8828125	50602.3671875	41315.24609375	76657.0625	3361.6962890625	7543.81005859375	43804.91796875	36950.484375	3048.018798828125	10720.8046875	65162.0546875	57702.90234375	71480.125	83428.4140625	52089.4140625	56435.39453125	64383.359375	59568.6328125	56713.59765625	65754.125	64571.7421875	69855.7890625	61465.1015625	58859.59765625	44018.36328125	63367.48828125	67139.5625	59377.203125	64868.1875	87995.9921875	65042.765625	61141.13671875	65646.984375	63094.20703125	56103.5234375	75273.1015625	67096.9453125	69575.4765625	55276.97265625	63820.31640625	70280.4140625	51960.7265625	68243.265625	57367.828125	63854.84375	57195.82421875	66924.1171875	79411.5078125	49599.5078125	56025.8828125	65233.34375	56634.44921875	59696.93359375	73875.859375	59884.84765625	65373.53125	65943.4296875	58455.1796875	45579.47265625	64763.59375	60872.23046875	62507.16796875	67983.8828125	76173.890625	68598.015625	63663.6484375	63978.65625	68718.25	57915.2890625	72443.21875	67097.6328125	71571.7578125	56768.01953125	61669.3828125	76167.8203125	49451.4375	71156.6640625	53691.64453125
600	900	18505.337890625	26632.33203125	35781.0	48041.046875	46641.63671875	50415.8984375	34867.63671875	30678.703125	32421.349609375	37726.10546875	-1960.0443115234375	45736.83203125	36640.5625	40450.23828125	18052.85546875	26201.0234375	34637.8046875	46289.5078125	46989.203125	49292.34765625	36310.07421875	32885.640625	39667.09375	37892.671875	36720.23828125	56003.625	2521.158203125	7559.05517578125	34897.125	32207.984375	1692.1256103515625	10509.107421875	48937.86328125	42555.06640625	52369.35546875	62343.34765625	44426.69140625	44886.40625	48286.98828125	46429.8984375	43831.87109375	48471.76953125	48299.24609375	52051.60546875	47313.0234375	45930.359375	36688.7578125	49207.74609375	49896.96484375	43309.66015625	48453.9296875	62539.4140625	49417.1484375	46960.75390625	49915.03125	47774.078125	43504.2109375	56062.84375	50591.01953125	52552.34765625	44354.07421875	47985.3359375	56663.34765625	43697.9453125	50394.3203125	45764.23046875	47851.28125	45303.7890625	51054.21875	59768.64453125	40362.75390625	43087.3984375	49803.6796875	44067.00390625	46962.3515625	55400.58203125	44829.9375	49274.17578125	49353.4375	45133.3203125	36863.921875	46787.41796875	45814.38671875	45682.78515625	51008.9921875	55102.29296875	52477.7578125	50316.70703125	48669.9765625	52612.5234375	45352.3203125	54597.53515625	50957.7109375	54160.8046875	44587.26171875	46590.3828125	56808.05078125	41689.75	50784.97265625	43942.17578125
900	1200	18944.849609375	24476.056640625	25379.802734375	36567.421875	31187.548828125	35210.20703125	32653.62109375	26461.837890625	24193.365234375	33800.90234375	-2465.4814453125	31150.927734375	31003.712890625	20508.7578125	18428.58984375	24167.1796875	25225.15625	34995.01171875	31699.197265625	35229.84765625	32528.83203125	24994.2578125	32608.896484375	30424.43359375	31335.7109375	41946.16796875	2207.09521484375	7841.34912109375	25222.69140625	27617.115234375	330.68157958984375	10146.337890625	36176.859375	32629.158203125	37183.69921875	46184.13671875	36879.6640625	34401.5703125	34568.73046875	35693.12109375	33790.6171875	34581.25390625	37105.19921875	37831.875	35385.1484375	34204.0625	29590.8125	36637.25	36793.671875	31739.388671875	36569.953125	42199.16015625	34751.03515625	35228.15625	36255.859375	35343.34765625	33769.90234375	40711.35546875	37242.58203125	38649.5859375	33144.296875	35243.7265625	42001.5	35060.22265625	35952.5703125	35959.09375	35133.32421875	35536.9375	36506.77734375	44278.24609375	34482.83984375	33247.875	36560.9296875	33955.94921875	37537.015625	41136.32421875	34331.73828125	37763.30859375	36915.26953125	33782.35546875	29852.65234375	35291.8984375	33790.62890625	34967.56640625	38209.33984375	37467.140625	37776.4921875	37160.71484375	35549.1875	38481.46875	33010.17578125	39802.7890625	37306.10546875	39576.6484375	33991.21484375	34055.7421875	43883.21484375	32582.578125	35001.015625	33912.58203125
1200	1500	18757.01953125	22479.798828125	19963.248046875	28484.04296875	23251.646484375	26127.73046875	28861.52734375	22731.470703125	18791.451171875	27577.478515625	-2262.31298828125	20700.861328125	27803.09375	22032.73828125	18341.5234375	22061.76953125	19740.767578125	28334.212890625	23512.07421875	26714.775390625	28178.48828125	18814.76953125	28019.025390625	23786.037109375	28456.482421875	29951.66796875	2025.0511474609375	8044.8564453125	18511.763671875	25019.08203125	-628.8980102539062	10059.8359375	28161.6015625	27145.0625	29987.513671875	37888.25	32464.03515625	29085.431640625	28261.572265625	30392.642578125	28934.10546875	27483.875	30691.0625	31203.912109375	28711.55078125	27352.25390625	24531.296875	30653.845703125	29762.42578125	27148.43359375	29878.52734375	33926.25	28345.16015625	29037.798828125	28735.08984375	28557.26953125	27260.205078125	32996.70703125	30260.57421875	31423.380859375	27062.787109375	28282.5	34169.99609375	29503.185546875	30979.904296875	29863.404296875	29563.802734375	28403.134765625	29626.56640625	38224.05078125	29398.8046875	28069.916015625	29364.517578125	28815.322265625	31876.447265625	33010.015625	29042.6328125	31572.103515625	30676.033203125	28021.01171875	25336.046875	28873.474609375	27979.751953125	29175.28515625	31156.44921875	29160.005859375	30046.69921875	31285.232421875	28496.27734375	31572.65234375	27829.833984375	32415.025390625	30109.7265625	32687.671875	27762.0546875	28110.630859375	39327.57421875	27879.375	33116.328125	28231.662109375
1500	1800	18424.896484375	20698.3515625	16111.5048828125	23015.94921875	17660.849609375	21119.501953125	25910.208984375	19965.0859375	16188.8349609375	21927.470703125	-1896.0992431640625	13082.162109375	24358.3671875	18646.875	18020.34765625	20209.93359375	16033.26953125	22465.958984375	18399.876953125	21752.70703125	24896.248046875	16333.9560546875	23701.828125	13230.1904296875	24242.388671875	33643.9140625	1671.3607177734375	8040.5849609375	14639.4990234375	22004.73046875	-236.8271484375	10018.1044921875	24061.921875	23371.61328125	24544.486328125	30676.875	27705.013671875	25292.1875	23195.662109375	25767.01953125	26804.736328125	22062.015625	25893.818359375	26454.509765625	25355.94921875	23640.24609375	21234.109375	24767.87890625	26298.578125	22849.537109375	24608.626953125	29110.52734375	22392.05078125	23811.6640625	23635.83203125	24099.80078125	22734.541015625	27505.607421875	25164.078125	26060.982421875	22556.884765625	23871.560546875	29615.421875	24981.564453125	25963.294921875	25858.83984375	25030.2578125	22974.646484375	24722.92578125	31022.375	24189.435546875	24044.3125	24888.181640625	24396.0859375	27481.224609375	27493.35546875	23851.091796875	27934.333984375	26447.64453125	23402.26953125	21905.517578125	22059.791015625	24777.806640625	24703.34375	26775.498046875	24723.529296875	24823.9765625	26863.3828125	23200.3203125	26850.939453125	22470.779296875	27126.912109375	25456.4765625	26530.974609375	23886.224609375	23238.1171875	31894.830078125	23610.947265625	25915.03515625	23476.458984375
1800	2100	17907.71875	19041.65625	14037.322265625	19154.3046875	14074.6259765625	17911.986328125	21909.291015625	17602.6328125	14168.4619140625	19376.28125	-994.0948486328125	10455.625	21925.134765625	13188.375	17657.40625	18788.0390625	13659.7275390625	19413.056640625	14956.7353515625	18063.904296875	21072.923828125	13822.798828125	21769.646484375	11263.150390625	21987.96484375	27694.1640625	1320.9952392578125	8254.84375	14263.8408203125	20203.123046875	313.49053955078125	9600.810546875	22396.83203125	20174.01171875	20917.216796875	27472.470703125	22628.74609375	23205.58203125	20106.1484375	23650.03125	21249.212890625	19246.06640625	22553.2734375	24240.904296875	22332.71484375	20559.7890625	19057.513671875	21283.748046875	22626.0390625	21361.87109375	21613.5234375	25507.681640625	18655.8359375	22272.37109375	20011.2578125	21483.029296875	18516.3671875	23629.8515625	21602.82421875	22046.638671875	18809.15234375	21100.8046875	26734.8359375	22762.58203125	25635.341796875	22186.94921875	20550.537109375	20957.728515625	21325.466796875	27144.857421875	21578.31640625	22291.509765625	21728.357421875	21184.001953125	25816.798828125	24382.34375	21716.599609375	24802.845703125	22019.2890625	20703.626953125	19040.876953125	20817.48046875	21067.857421875	22391.26953125	23115.115234375	21578.2421875	20651.625	22093.19140625	19298.75390625	23266.869140625	21369.572265625	23294.220703125	21549.69140625	22977.953125	20648.51171875	20106.326171875	27063.880859375	19286.158203125	25484.265625	21081.62890625
2100	2400	17173.369140625	17778.953125	11724.75	15474.4521484375	11402.7734375	14385.455078125	20142.96875	15009.9951171875	12458.1552734375	17741.15234375	-381.5357360839844	8879.640625	19065.6328125	10767.2744140625	16831.5625	17101.228515625	11492.1396484375	15977.0751953125	12010.3525390625	14876.8193359375	18594.84765625	12378.462890625	17835.05078125	7338.13671875	19067.646484375	24613.025390625	1685.63037109375	7868.98779296875	13249.607421875	18732.361328125	173.8431396484375	9576.0400390625	20566.54296875	16674.59765625	18194.642578125	23649.263671875	19161.357421875	21520.21875	18182.919921875	21372.171875	19758.212890625	17020.28125	20453.71875	21723.873046875	20111.984375	17597.15625	15565.5830078125	18258.4375	20292.078125	18983.1171875	18307.646484375	23965.998046875	15950.072265625	19143.7578125	17260.330078125	19149.349609375	17441.384765625	21123.087890625	19587.994140625	19441.4296875	17416.70703125	18285.638671875	23586.05078125	20425.3671875	21238.884765625	20863.490234375	19715.205078125	18946.146484375	19646.890625	25197.576171875	18127.943359375	19783.91796875	19448.380859375	19047.34765625	22223.3359375	22146.705078125	18999.896484375	23557.03515625	21072.3203125	19013.474609375	16160.6826171875	17645.95703125	19449.748046875	20234.41015625	21689.859375	19379.224609375	18314.609375	19971.474609375	17156.236328125	20794.16015625	15947.556640625	21467.056640625	19136.42578125	20893.546875	19052.39453125	18320.140625	24899.580078125	17038.07421875	22201.16015625	18666.90625
2400	2700	16424.34765625	15994.1640625	10042.4345703125	13456.62890625	9411.818359375	12443.8583984375	16702.83984375	12755.6591796875	10208.0732421875	13201.73828125	528.54150390625	745.2382202148438	16779.62890625	8343.7490234375	16165.9169921875	16005.1611328125	9920.763671875	13521.732421875	10012.484375	12751.24609375	16229.076171875	10449.8056640625	13447.5234375	3684.94140625	17199.8984375	18218.71875	1338.6234130859375	7721.14306640625	10018.21875	16925.6796875	367.9106140136719	9360.380859375	19085.974609375	13086.9677734375	16544.8515625	21035.02734375	18101.119140625	20506.79296875	15919.3525390625	19311.416015625	16988.12109375	15418.8232421875	18519.654296875	19823.751953125	17421.62109375	15641.90625	14757.16015625	16509.546875	18039.76953125	17017.6875	17267.390625	21001.216796875	14016.755859375	17028.63671875	14946.271484375	16954.93359375	16301.068359375	18778.5625	17048.69921875	17814.240234375	15239.0869140625	16591.546875	22861.80859375	18122.732421875	20098.3671875	18988.96875	17444.6484375	17648.392578125	17010.6171875	22143.189453125	14025.33984375	19295.802734375	16615.896484375	16935.50390625	19737.310546875	19537.451171875	17190.01171875	21568.6328125	18684.794921875	16967.259765625	14812.1181640625	15067.072265625	17867.5078125	17824.119140625	19568.1796875	16287.0234375	16192.81640625	18645.498046875	14899.29296875	18081.7265625	14538.2470703125	19067.509765625	17447.9296875	18216.576171875	16675.599609375	15757.6376953125	20791.06640625	17691.7890625	20078.419921875	16062.7666015625
