frame_start	frame_end	Left-AV	Left-CeM	Left-CL	Left-CM	Left-LD	Left-LGN	Left-LP	Left-L-Sg	Left-MDl	Left-MDm	Left-MGN	Left-MV(Re)	Left-Pf	Left-PuA	Left-PuI	Left-PuL	Left-PuM	Left-VA	Left-VAmc	Left-VLa	Left-VLp	Left-VM	Left-VPL	Right-AV	Right-CeM	Right-CL	Right-CM	Right-LD	Right-LGN	Right-LP	Right-L-Sg	Right-MDl	Right-MDm	Right-MGN	Right-MV(Re)	Right-Pf	Right-PuA	Right-PuI	Right-PuL	Right-PuM	Right-VA	Right-VAmc	Right-VLa	Right-VLp	Right-VM	Right-VPL
0	30	29.67275	105.83761	29.52282	53.15824	89.97237	8.36552	48.0562	24.32195	54.5599	51.40181	10.65882	75.65987	29.16794	15.96983	9.13974	42.24926	77.24706	57.75086	206.42541	102.14574	78.08181	91.38153	42.35552	22.21467	88.33485	36.73081	53.2297	29.78585	10.44417	18.68813	60.18498	32.4959	39.11652	29.24821	45.19938	56.72375	20.45652	23.60642	9.79293	24.72297	26.74309	122.86106	42.19686	39.77116	29.46169	14.29684
30	60	5635.86014	4508.48984	6879.0958	6076.94352	6839.52884	6903.41153	7298.30509	7052.31401	6845.24501	6388.64464	7343.15586	5685.23104	5575.94583	8130.94603	7712.17677	6244.10866	6583.1394	4728.87637	5294.69004	4668.65719	5691.75875	4661.07275	6113.53562	5515.62788	4735.30982	6525.56538	5749.03459	6910.82786	5239.74194	7624.1104	4647.28362	8534.76086	6886.05633	6601.98875	4462.45917	5724.2519	6764.44496	5868.10983	5473.57318	6033.04744	4924.05326	3908.05747	5567.28106	6529.64228	3139.20056	4401.92042
60	90	17311.48015	15679.99793	22789.71615	17598.2788	22357.54514	16974.40406	21918.79146	16128.49507	22607.5731	21092.50948	17305.68349	14863.52751	17526.73403	21535.81809	16480.46051	22292.15959	19291.12043	13737.05836	14307.31445	15984.14764	18780.51049	13849.37598	18436.6781	15483.97096	17848.27487	21721.5434	17668.53082	20946.84219	12523.55137	21967.30587	14404.88582	24766.07528	22216.57338	16107.84172	17003.98054	17179.39209	22149.92105	14431.99282	15075.85002	17827.44446	13437.36794	19094.27773	16388.15786	18700.08265	13695.74731	14910.83139
90	120	30842.37144	33048.88967	37753.82839	34826.63846	32424.25246	29700.43943	36570.99363	30944.55664	42100.45733	36418.13012	30591.22332	30863.5612	29981.14443	37771.20401	29732.53318	36260.63782	30262.5684	25870.74859	31888.475	32461.8859	33898.03577	23167.08496	31614.63297	25846.01741	32921.90586	31459.40278	31132.48708	29858.38073	25935.43645	33378.30364	27011.5338	41170.65051	36392.09977	32982.87844	30423.96349	26541.55062	37615.81678	28546.01909	33173.62737	30597.59018	25829.19146	32759.82383	29226.7518	32470.43589	18590.95532	28840.78473
120	150	43363.93703	45848.98372	53692.73073	50389.83057	47009.33492	40070.24214	51876.07084	46249.57988	62537.34077	54780.39644	41768.37777	42176.08105	44865.56401	58588.62478	45173.07693	54737.76088	47356.81688	37525.28411	41476.77812	45485.40194	50851.81456	31255.65137	47527.43735	42268.50135	48215.51672	49362.15234	52352.55826	42147.01628	36536.0894	49725.7267	38119.30319	62210.21752	54956.65459	42475.07591	44135.78576	45809.9268	60200.90225	41323.37733	47064.83948	45649.36128	41376.21531	46071.04766	44839.43322	49329.05126	31673.77783	43484.56506
150	180	55224.5445	55807.54467	64946.1862	56544.79774	53666.47975	48425.48728	60481.1601	46940.21113	71408.14253	62639.42589	52494.00114	44938.23665	48090.66735	68736.37614	52133.42698	60543.38276	53378.78894	45450.36889	48782.13984	51670.09265	55722.69782	36132.83789	54381.97319	45973.76355	53478.80875	51084.50217	56453.26409	46509.94284	42359.02244	54780.7185	45947.75511	68152.64652	59581.96602	49776.99504	40501.34345	49130.65395	65060.50005	50439.72306	59697.63026	52054.46382	40766.9521	52071.22969	51550.20272	57516.19774	35184.40918	50962.74922
180	240	50931.65909	58247.90029	63185.39115	57445.3529	50758.60475	48679.95045	62792.05859	46600.93574	72876.44668	63285.25792	48826.21143	50682.06771	48759.10513	68182.14623	49259.39528	62382.17776	54487.73937	44780.52977	54598.85938	54909.07973	59866.22413	37417.46875	55412.60128	45788.76656	53887.43818	59265.18359	60918.2614	50940.93893	41977.82721	57708.32476	46044.40956	73039.80835	62881.93254	53033.55375	46860.78005	50646.53395	67826.71468	51774.65866	58696.09966	55548.62006	42332.31648	53338.90625	53333.70729	58864.71853	36621.5332	50488.29485
240	300	47355.27702	52938.47065	60192.85417	62917.86621	47751.64714	46759.75974	59456.50341	52695.51348	69668.98263	61417.27346	49091.83119	49663.02897	57317.66591	69287.29091	51758.55407	60820.62468	52142.21597	43527.54906	52751.56641	52813.96292	60617.04378	39904.04688	58512.31621	44831.53232	53653.94839	55955.67708	61157.54758	44397.96198	44118.96756	55012.17813	46693.39844	74386.27203	63524.6255	49595.60551	51426.59315	52771.99664	67623.21184	50614.58135	62400.67495	54121.31792	43149.05313	54908.84297	53742.0415	60255.20363	39794.50098	52402.43434
300	360	51453.97978	54515.66637	65309.02422	65205.98034	50509.42419	46570.89681	60810.90121	52601.03438	71415.89631	62585.16224	50929.98774	50408.3597	56721.87041	71147.41614	49955.68509	65544.66608	53679.53502	43894.29457	52339.66406	53847.01774	59846.45856	37368.40234	57981.63574	44925.46667	51552.7049	55256.28993	62867.28674	43151.93464	46119.86313	53738.52638	44687.94982	67337.67494	60068.15125	51925.75113	47479.22446	59005.06703	66131.81045	51267.68236	57772.11472	52717.60263	43951.91481	51570.65234	51639.54313	56887.54521	35357.74512	50904.75741
360	480	45793.57814	51298.42483	54456.16589	56161.32689	41814.54868	43835.96824	50044.81616	46685.23633	63810.21644	55714.01666	46814.19269	48125.20345	50375.33936	62872.39667	49138.85736	57249.57766	49386.68005	42190.06771	50313.50078	50836.16883	54713.55051	35879.18945	53700.82666	41727.99971	49927.10417	49450.73915	57098.9665	39954.61107	42612.46675	49102.25089	40927.064	62692.72595	54913.27718	49397.69385	46178.23648	47202.68652	62285.1398	48109.76467	53355.31835	48994.79842	43270.76132	51332.73125	50036.21832	53736.22251	34902.26758	48702.81805
480	600	40057.03254	45787.73818	46354.57943	52962.41318	35642.30657	40502.50771	44098.99249	43151.69082	56416.15455	47893.7935	42205.02097	42427.49382	44926.23547	54334.61064	43809.42763	49998.99955	43534.15461	39009.26339	43013.57422	47063.19804	51362.89527	33319.98828	48103.89325	37406.40653	47149.2013	42154.35503	50141.62046	33416.50495	36593.74493	41251.80139	37523.55934	55062.71622	47928.93962	43327.59439	42666.70042	44555.85051	52942.00223	42117.88703	47381.13986	43863.84859	39961.92903	47922.10781	44789.1167	48241.62316	31539.68066	43933.02188
600	900	32646.20563	39620.04928	38134.54036	43851.92649	29291.26121	33332.45537	36360.12321	35239.49072	44908.31363	38663.21606	36250.14913	37603.30371	38428.31853	43869.67045	37616.19314	41170.19059	33708.2067	34459.50281	39508.13281	39861.44893	42152.70275	30460.98535	41746.94667	31808.77461	38721.71073	32826.52214	41930.14473	26330.60378	32786.27606	33134.50627	32149.10938	43128.1049	37848.02135	37038.21278	36664.77885	36400.43504	42563.41168	36720.42607	39062.32186	35073.85977	33866.96372	40498.81875	38555.14792	40578.91756	27846.93945	37731.71784
900	1200	26152.69331	31742.65885	28136.91094	34010.79831	22447.49457	27881.44426	25041.61584	26637.78535	32936.74559	28759.93947	30045.36647	29669.03874	28513.15947	31930.13246	29672.89594	30504.46054	25601.66999	28650.68866	32574.7957	31607.49457	32848.24609	26792.7041	33627.94213	24356.97384	31247.80979	25681.36263	33214.63973	20962.20495	27735.66845	24108.2834	26466.28395	32325.48559	28266.11359	30270.16322	29416.6896	29208.51348	31121.64496	29579.10184	30966.79479	26439.11806	28309.4498	33655.06797	31155.23286	31107.88394	25992.60303	29933.39263
1200	1500	20517.27803	25784.71517	21919.39056	26732.91453	17433.83019	24561.41208	19659.41272	20832.39746	25291.14669	21775.15912	24557.47711	25391.25944	22601.99702	25021.26064	23975.61627	24866.13176	20227.93906	23488.19554	27254.74961	26295.17518	26789.8901	24176.46094	27371.84586	20709.34496	26465.7575	19828.50987	26407.10848	17882.95182	24919.70932	20487.50061	21732.05123	25121.76883	21602.84171	24118.43874	25836.44742	22256.35141	25367.15844	24149.64487	24162.18622	21336.26828	24972.15552	28370.25898	26476.40094	26393.52165	21334.00049	26277.60993
1500	1800	17711.31249	20963.44404	16953.10091	21354.07514	13187.63704	21854.82646	15162.8984	16458.63257	19909.00124	17946.65523	21282.8686	21645.22559	17224.611	20092.99231	20152.91908	19807.89851	16728.5696	20884.76229	22923.76641	22507.45847	21730.55387	20915.0459	22796.89614	18223.56965	20801.69336	15619.70443	20927.47882	14184.50033	21447.47442	16278.8284	18673.81994	19776.43048	17832.01744	21646.35876	20297.90535	18411.81	19046.2729	20345.37795	20172.24998	17468.29586	21683.84868	22382.58828	22091.80684	21018.62537	20436.81006	21823.28772
1800	2100	15858.87354	18119.23997	15002.57012	17401.15288	12159.6913	19772.5375	13886.03931	14113.60781	16820.81153	15428.41687	18786.42869	17316.63965	14806.49513	16057.9349	16967.0244	17291.71542	14132.46892	18524.57646	18814.13008	19442.36136	18472.21684	19420.29785	19252.85131	16053.06952	18664.46026	14507.86675	17521.81902	14049.057	20791.32992	14863.78653	16348.97266	16837.07736	15339.24011	18405.4117	19521.11268	15931.51531	16837.91767	18163.78707	18409.05947	15261.04321	19494.47608	19800.41992	19544.03755	18835.81707	18572.94629	19482.86449
2100	2400	12755.20833	14636.51939	12263.28262	14756.03547	10009.23658	16950.62403	10902.7852	12755.03491	13646.72786	12386.08369	14465.29665	14627.8326	12653.03918	13408.96464	13469.37216	13797.63011	12061.59529	15693.24766	17180.50488	16465.11004	15519.40791	17770.50098	16474.42651	12802.95543	14913.80003	11524.14952	15223.96702	10875.42262	16914.67776	12149.25558	14633.61155	14734.32993	12831.50379	15471.59966	14495.25068	13189.49313	13586.03056	15057.28938	15899.24718	13304.28988	16161.45054	16729.1457	16811.93727	16100.23533	17374.40869	16273.69377
2400	2700	11130.33921	13946.39663	11350.60254	11677.76033	10490.59961	15602.47839	10139.28132	10891.02676	12120.77826	11122.31621	13460.54751	14080.84041	9941.44492	11294.1938	12516.52868	12938.56458	10735.50855	13357.67947	14552.80762	14467.2613	14224.25268	15611.36133	14762.54507	11457.64144	14662.81437	9699.41721	11791.2588	9169.6459	16283.50094	10633.87333	13085.41842	11473.00812	10843.9809	13417.58837	16133.47942	10607.57426	11285.95434	13275.20878	13979.55651	11513.83817	15349.74089	15934.24805	14695.00549	13995.99809	16949.5813	14891.89913
2700	3000	9951.45346	11431.20095	10073.95316	9963.54573	8795.18392	14218.61859	9368.91225	9261.19102	10319.28406	9438.04616	12678.62261	10649.97982	9091.63314	9739.05415	10493.92179	10605.51624	9358.54632	12091.72192	11910.87344	12266.63231	12097.36833	14521.66064	12490.8564	10542.99601	11109.49178	9498.2034	10508.37762	8990.13809	15168.65043	9191.19815	11920.46094	10239.40018	9520.69767	12285.55477	10148.97882	9300.82013	10089.98914	12007.39183	12534.16231	10259.67793	12873.65707	10811.48066	13449.34661	12583.68562	13518.88599	13132.81604
3000	3300	8956.58692	9801.36368	9021.96576	10105.85736	8110.63317	12840.71516	8629.42309	9189.11587	9204.31148	8337.28706	10056.03037	10258.7679	8425.04114	8843.98807	9243.76197	10355.33827	8641.90173	10772.69674	10499.12363	11867.81319	11211.50049	13930.83447	11661.51918	9598.80062	10253.46397	8803.65728	10382.07298	7841.72969	13288.47718	8428.35807	10775.52058	8831.51498	8388.20373	10492.09994	11148.41594	10438.90295	8823.47709	10917.25117	10451.0042	8786.49119	12194.60354	11074.76387	11775.58945	10695.66719	15189.35132	11930.60923
3300	3600	7839.57159	8820.53652	7272.00475	7997.00225	7212.38647	12621.53868	6704.85949	7861.10239	7941.03475	7317.55643	10227.44979	8331.75594	6961.6079	8454.57834	9412.88268	10297.61198	8078.96485	9657.17437	9029.39102	10119.31417	9615.43252	14899.15234	11731.63161	7815.57944	9177.47569	7762.27078	8771.21844	8430.91257	13059.4069	8748.71178	8797.5187	7822.49903	7220.96038	9420.21165	8366.53737	7913.57093	8632.11124	8259.64514	9256.02023	7941.00508	10512.56218	9465.3668	10306.71331	10008.61227	13047.86963	10889.84352
3600	3900	7978.96697	9061.0132	7448.43135	7903.52227	7107.35042	10041.82984	7755.21831	6535.94312	7276.05256	7170.31792	8552.15496	9320.60807	6884.01586	7703.70825	6967.50058	8683.85405	6916.13606	9849.22303	10666.80879	9385.47206	9276.26086	11351.38965	10172.62986	7963.6175	8345.44652	6518.36008	7601.25965	6563.2994	11689.78568	7189.50007	10056.29684	7681.13278	6976.96387	10252.2236	8428.53538	5904.13969	8247.30938	8717.92946	10549.70423	7951.70136	8933.89573	8602.40625	9259.51917	8852.73154	11194.6084	11399.29035
3900	4200	7499.97534	7479.37985	7357.16208	6985.36118	6258.80129	9084.01119	6088.59643	6605.83093	7011.62739	6455.6783	6500.55299	7089.2323	6441.02235	7035.10668	7905.85726	7396.62167	6834.46462	8336.93879	7276.82383	9035.3781	8664.02579	12200.58984	8801.26772	7713.13026	7310.14096	6618.61466	6537.30186	8377.49297	11109.41356	8234.79911	9438.12943	6969.16986	6163.63342	9318.3205	6815.36542	5938.58514	7028.90679	9018.24157	10214.77026	7727.19421	8492.42586	7399.34912	9213.31014	8431.18589	11115.14551	9029.79823
4200	4500	7083.96146	8350.69061	6735.14352	6476.82241	6371.42905	8727.0949	5725.01167	5328.70276	6058.81677	6156.32504	7208.99973	6610.42688	6198.60355	5569.91874	6726.08851	7876.90029	6338.31089	8963.79159	7341.26514	8566.91677	7831.14977	10334.7749	8073.36027	5558.05838	7955.80087	5093.86236	8056.44674	5778.36895	9052.6447	6868.17097	7795.97483	7121.0795	6472.48291	7902.65152	9146.29158	7264.35364	7375.24818	7061.55358	9371.33126	6874.15677	7504.21994	9630.01875	8071.82679	7813.90195	11775.63892	9301.01266
4500	4800	6745.29671	6341.99541	7067.82077	6832.29285	5905.71414	8973.54446	5184.92434	6379.94282	7489.18422	6294.09277	6193.93783	7384.79838	6510.20018	6016.84923	6592.19658	6948.48251	5826.85715	6966.90422	6016.83848	7525.03392	7764.84942	9512.43018	7767.75588	6171.92335	6999.87674	5182.8571	7117.08344	5664.51157	9394.69128	6688.89177	7567.88634	5832.81262	5450.63262	9239.57783	7562.96698	5841.87364	6278.26447	7835.17923	7606.78937	6473.10245	7557.29893	6931.93848	7570.55939	7392.21067	11139.229	9173.52636
4800	5100	6535.98827	7475.20066	5735.01598	5413.597	5848.37038	6551.68185	5963.91049	5049.49219	5576.98165	5207.07945	5013.11808	6922.86519	5560.0764	5237.08512	5862.52801	6738.78343	5208.26321	8379.02937	6497.24902	8372.05345	7501.45217	11859.89746	7384.29755	6042.99803	8567.96678	5148.19401	6663.50692	7474.83713	7382.68121	7279.44536	6431.27133	6473.6083	5930.29106	5784.04121	8033.65956	6446.86553	6441.28338	5907.10331	6094.2244	5268.47378	7364.63982	7344.78271	7240.35383	7451.68867	10708.1521	8759.04142
5100	5400	5001.22914	5923.37322	5643.15358	8386.76242	4748.72673	5403.92926	5662.52381	6344.55386	6435.90161	6069.33123	5568.03399	5223.69991	6558.95904	7213.70811	6167.68404	7480.91994	6842.83472	6497.57844	6200.40693	7042.90062	7337.37457	9574.69971	7723.07184	6051.04747	5722.08386	6659.61681	5839.85877	8041.26284	7526.70198	6742.19804	6689.01947	6083.05343	5441.61997	6440.51645	4245.01332	5027.82866	5619.04661	7087.23803	6664.06103	5306.68843	6483.03931	5671.24824	7444.64394	7063.35807	9142.1084	7978.75239
