frame_start	frame_end	parasubiculum	HATA	fimbria	hippocampal_fissure	HP_tail	presubiculum-head	presubiculum-body	subiculum-head	subiculum-body	CA1-head	CA1-body	CA3-head	CA3-body	CA4-head	CA4-body	GC-ML-DG-head	GC-ML-DG-body	molecular_layer_HP-head	molecular_layer_HP-body	Lateral-nucleus	Basal-nucleus	Central-nucleus	Medial-nucleus	Cortical-nucleus	Accessory-Basal-nucleus	Corticoamygdaloid-transitio	Anterior-amygdaloid-area-AAA	Paralaminar-nucleus
0	30	470.92091	184.37876	292.25931	276.87213	146.93486	357.55016	369.9648	221.33578	203.80593	234.65798	144.74566	291.69097	264.11204	172.00486	236.19295	208.8935	233.96077	227.55622	243.91635	220.54581	231.64933	222.52169	179.06189	189.61933	174.62667	153.78344	452.19345	284.34051
30	60	4079.24213	3682.82407	3862.64147	3738.28039	3961.24099	4086.49103	4884.09714	3297.10543	4368.35682	3705.28361	2994.1085	4009.28983	3320.15692	3543.03291	3859.92963	3623.83122	4070.77404	3650.25258	3953.40414	2593.26516	3780.61341	3969.7691	3559.70944	3863.91901	4081.7696	4002.17879	4818.58837	3834.42509
60	90	8857.79515	6841.36351	9870.76391	9049.6882	8151.40956	9361.30631	8484.97028	8338.47418	8293.70539	8017.55224	8661.58175	9485.01058	9643.50523	9392.96856	9787.86405	9514.80342	9556.04202	8648.48488	9192.38892	6240.46141	7482.48887	8109.47456	7166.14328	8209.00481	8046.66953	7417.39286	9743.22451	7674.83018
90	120	14467.40233	14273.61387	17831.43972	16110.45025	15019.26116	16520.24823	16058.80425	14421.89494	15262.04895	14594.95492	13238.42863	15958.41888	16727.00609	14826.20996	17083.83497	15066.41854	16878.47915	15332.94914	16121.79136	12211.10365	14603.08947	15186.41759	11968.86733	12283.48818	15281.96323	12957.79378	15950.19863	13360.47374
120	150	16443.89754	21837.24321	21242.68821	19813.77471	20162.78898	18226.15794	18755.59508	18611.75158	20808.74203	18597.21717	19753.11996	23607.14515	20438.26178	21495.47349	21221.51628	20568.80594	21439.60602	19418.4668	20749.74264	17211.10994	18830.95131	21523.06943	17988.20773	20271.64908	20756.23805	18374.02185	20004.52048	17877.89249
150	180	18366.40544	16479.77219	22142.6333	20783.01592	20987.12281	20333.35667	20276.9463	20140.78599	22319.47156	19415.48177	19871.52249	21799.49518	19861.45302	22104.21439	21350.24852	20954.01533	21632.85269	20431.26614	20912.95245	18792.70275	20075.15227	21671.11479	19030.14593	20103.96484	21097.46689	16589.12912	22623.19385	18354.51049
180	240	15206.49144	16743.4822	21690.2161	19578.31263	20155.96276	19052.35133	19353.6335	19602.38016	20563.25973	18334.15821	18879.31298	20836.56795	20432.31305	20713.02891	21764.15319	19828.0237	21533.72763	19484.71012	20601.93168	18648.47915	21965.745	20186.07156	17660.2606	17893.57047	20302.77987	16140.51906	20020.3966	19186.42154
240	300	15962.10103	15995.17584	20437.97065	19433.17383	19328.40456	20301.61226	18137.27543	19673.72334	19392.0853	18292.68995	18431.32608	19765.16032	19448.37863	21289.00883	20454.30144	20183.87199	20127.70726	19981.66852	19453.92839	18194.71547	18772.8082	18101.47328	16439.32478	16903.41803	18502.07953	15168.48648	18399.48112	17910.76995
300	360	16238.16594	15709.94209	18019.66141	19413.36497	17220.19743	19983.3106	17876.67307	18598.90632	19837.7893	18353.07647	17869.80214	18659.57953	17282.20314	20637.93409	19082.96477	19861.55505	19064.64007	19661.06839	18674.28009	17647.35193	19420.25204	17877.27665	16584.00377	16888.6533	18990.16449	15671.94218	18466.97943	17481.75051
360	480	14625.35723	14490.42055	17389.45598	16983.4839	16636.26596	17349.99873	16172.76655	16711.75124	18611.92783	16350.39309	16475.32041	16336.36819	16489.042	17684.35179	18715.77265	16774.9763	18427.41292	17005.52326	17650.4157	17154.72883	18549.77806	16032.79832	16025.30259	16447.52609	17087.42533	14356.44871	17696.42409	16985.6278
480	600	13766.38528	12634.78512	15371.29853	15742.83217	14204.00771	16856.77965	15086.24546	16257.94317	15965.4489	14756.60619	14294.00179	14914.33739	14230.52935	16757.28592	15865.05725	16060.09174	15802.32479	16029.35082	15341.76613	15744.06872	17032.33033	14616.48046	13825.88449	14012.93425	15497.77781	12749.80907	15187.33271	15584.28249
600	900	10871.6028	11506.89757	13675.03928	13222.92791	12640.82575	13298.30996	12951.3511	13605.45037	14035.82555	12644.89431	12567.39954	12106.41841	12369.07306	13547.12908	13720.53927	13154.89643	13794.16385	13265.42154	13294.62757	14305.44627	14032.14333	13115.84588	12711.75879	13006.36735	13599.5775	11590.99153	14287.14263	13005.39229
900	1200	9235.9822	10619.77395	11720.28816	11417.48834	10797.18404	11495.81604	11307.93426	12463.58223	11780.00103	10999.19294	10794.81961	10366.81126	10853.22245	11778.3418	11633.29897	11509.68024	11776.71811	11538.68421	11370.74128	12767.63572	12292.45312	11804.47651	12326.03292	12200.57641	11631.5946	10228.01317	11325.48079	11547.51816
1200	1500	8153.10363	9813.05662	10756.21476	10072.95049	9817.41273	10171.66096	10047.25618	11166.93851	10524.72013	9547.85246	9933.70925	9091.85949	9705.75649	9672.40603	10300.42827	9751.07733	10444.09566	9919.91074	10134.48707	11707.25681	10510.35187	11174.97924	11182.40932	11362.50423	10502.38117	9237.11111	10071.66045	9977.80982
1500	1800	8168.54789	8318.05432	10351.34937	9483.97887	9406.17941	9792.53287	9549.34312	10127.31888	9882.77347	8888.69175	8912.82092	8596.03855	9124.78914	9817.02502	9422.71345	9707.76263	9561.83059	9507.98875	9276.18305	10429.66154	8858.98304	10416.82856	10610.98368	10463.25801	9136.15725	8436.29939	8921.41737	8269.17738
1800	2100	7086.41452	8769.38426	9416.08064	8243.31646	8447.8459	8286.28753	8682.21267	9212.33449	9060.36232	8283.03787	8641.39519	7883.01177	8676.15889	8315.39036	8760.0935	8285.84617	8889.93695	8417.1671	8764.55411	9408.40836	8731.9451	10039.26281	10427.57617	10019.67134	8897.32849	7960.77856	7890.766	8436.38382
2100	2400	6144.02736	8649.65544	9101.75675	7294.59475	8320.07834	7594.97196	7767.11614	8678.2723	8179.19581	7293.9278	7975.76156	7272.63053	8394.27731	7196.33272	8310.06674	7367.16037	8344.49838	7473.33546	8055.1608	8856.80918	7624.65946	9335.97049	10008.93792	10107.02517	8033.93679	7563.82076	7855.92392	6876.15388
2400	2700	6194.07869	7338.11584	8374.14868	7357.01508	7085.92911	7929.23643	7645.6755	8777.10835	7634.34062	7032.51399	7611.76573	7460.69737	7854.36579	6697.61456	7698.80209	6984.18014	7807.20231	7519.00921	7690.90322	7828.74714	6445.4528	8368.15188	8775.24107	8520.59527	6785.1831	6369.49824	6031.67447	6830.79509
2700	3000	6113.19423	7093.50534	8162.78583	7025.10062	6750.76913	7262.83536	7602.77986	7598.48435	7463.17828	6522.52655	7050.9227	6997.83349	7877.55403	6692.67304	7645.26575	6784.57483	7678.19684	6901.51161	7470.09364	7545.04889	5831.26142	7272.22334	7409.39746	8068.50883	6317.7656	6372.53722	5622.40268	6031.80717
3000	3300	5428.77572	8340.48544	7488.24592	6525.79698	6092.16395	6312.282	6684.75189	6283.90553	6858.1635	6033.52969	6571.11878	6075.46014	7884.683	5596.00552	7043.29512	5892.32094	7094.04133	5994.72132	6932.44418	6451.53711	5857.95669	7562.16976	7472.23807	7330.02797	6591.30101	6204.71985	5606.58316	5710.45982
3300	3600	4742.86724	7162.64877	6677.51999	5148.78554	6258.03126	5678.1661	5489.32203	5590.91592	5520.78752	5349.63849	5962.81577	5620.28025	6401.69296	4826.96703	5917.00555	5139.90806	5857.30735	5221.28916	5667.62556	6117.95654	5284.02949	7112.9008	7338.77469	7267.16928	5989.64305	5554.19709	4848.48166	4912.08285
3600	3900	4983.89521	6576.3922	5722.47277	5211.49463	5488.54621	5542.48536	5120.66992	5603.94456	5313.07565	5111.6257	5510.88831	6208.57156	5228.45185	5602.94712	5027.66472	5812.96338	5167.74326	5268.92133	5140.66761	5262.36626	4872.6476	6314.29862	7088.7011	7336.96705	5428.18886	5459.88765	5366.46709	4287.36022
3900	4200	4096.93906	5391.06612	6444.9393	5198.80012	5434.0772	4515.33271	5164.43466	4902.66535	5524.04202	4644.07899	5670.74538	5080.69528	6645.98745	4662.64045	5851.16958	4826.09975	5966.15359	4504.5305	5765.00523	5040.37097	4313.9388	6262.82257	6238.54911	6144.27478	5177.19608	4560.22333	4214.19427	3809.2709
4200	4500	4565.86357	5194.66769	5676.79288	5178.43952	5331.9106	5176.37667	5166.96033	4523.41777	5169.81789	4933.61338	5078.3102	5316.47686	5628.4496	5004.63073	5054.33289	5094.60694	5064.91683	4872.21094	5091.62888	5294.81897	4582.74265	5966.61582	7371.1582	6959.52458	5459.76571	4199.94846	4086.63523	4099.83102
4500	4800	4085.7287	5589.77417	5969.31158	4255.50863	5335.66187	4258.21232	4248.49324	4454.89437	4720.46297	4559.1057	4572.06557	4358.11648	5498.05285	3959.98928	4987.29518	4237.24733	4860.8783	4275.89393	4671.47517	5422.847	3389.00162	5198.85634	6079.42125	6350.54682	4223.00106	4154.65972	3338.13437	4099.24654
4800	5100	3675.77618	5756.59781	4345.55444	4134.40381	4203.14641	3497.47624	4292.4175	3816.20155	4177.55097	4161.92878	4580.39506	4809.19954	4667.30969	3880.47686	4435.89206	3867.96799	4469.1752	3858.73632	4412.57514	4438.5907	3912.9567	4781.56634	5745.8975	5255.70391	4750.91578	4771.05267	3309.9336	3330.88147
5100	5400	2998.2885	4760.25402	3852.69891	3704.99765	3958.2817	2630.70556	3678.31413	3896.04163	4088.21645	3668.88075	4977.48488	4428.16678	4441.68122	3886.36029	3980.37279	3787.61307	4065.33915	3507.25043	4171.08808	3955.32735	3242.56645	6244.25214	5216.86632	5012.49833	4755.03558	4143.984	2999.04306	2790.12509
