frame_start	frame_end	Left-Cerebral-White-Matter	Left-Cerebellum-White-Matter	Left-Cerebellum-Cortex	Left-Thalamus	Left-Caudate	Left-Putamen	Left-Pallidum	Brain-Stem	Left-Hippocampus	Left-Amygdala	CSF	Left-Accumbens-area	Left-VentralDC	Left-choroid-plexus	Right-Cerebral-White-Matter	Right-Cerebellum-White-Matter	Right-Cerebellum-Cortex	Right-Thalamus	Right-Caudate	Right-Putamen	Right-Pallidum	Right-Hippocampus	Right-Amygdala	Right-Accumbens-area	Right-VentralDC	Right-choroid-plexus	AirCavity	Skull	Vermis	Pons	CSF-ExtraCerebral	Head-ExtraCerebral	ctx-lh-bankssts	ctx-lh-caudalanteriorcingulate	ctx-lh-caudalmiddlefrontal	ctx-lh-cuneus	ctx-lh-entorhinal	ctx-lh-fusiform	ctx-lh-inferiorparietal	ctx-lh-inferiortemporal	ctx-lh-isthmuscingulate	ctx-lh-lateraloccipital	ctx-lh-lateralorbitofrontal	ctx-lh-lingual	ctx-lh-medialorbitofrontal	ctx-lh-middletemporal	ctx-lh-parahippocampal	ctx-lh-paracentral	ctx-lh-parsopercularis	ctx-lh-parsorbitalis	ctx-lh-parstriangularis	ctx-lh-pericalcarine	ctx-lh-postcentral	ctx-lh-posteriorcingulate	ctx-lh-precentral	ctx-lh-precuneus	ctx-lh-rostralanteriorcingulate	ctx-lh-rostralmiddlefrontal	ctx-lh-superiorfrontal	ctx-lh-superiorparietal	ctx-lh-superiortemporal	ctx-lh-supramarginal	ctx-lh-frontalpole	ctx-lh-temporalpole	ctx-lh-transversetemporal	ctx-lh-insula	ctx-rh-bankssts	ctx-rh-caudalanteriorcingulate	ctx-rh-caudalmiddlefrontal	ctx-rh-cuneus	ctx-rh-entorhinal	ctx-rh-fusiform	ctx-rh-inferiorparietal	ctx-rh-inferiortemporal	ctx-rh-isthmuscingulate	ctx-rh-lateraloccipital	ctx-rh-lateralorbitofrontal	ctx-rh-lingual	ctx-rh-medialorbitofrontal	ctx-rh-middletemporal	ctx-rh-parahippocampal	ctx-rh-paracentral	ctx-rh-parsopercularis	ctx-rh-parsorbitalis	ctx-rh-parstriangularis	ctx-rh-pericalcarine	ctx-rh-postcentral	ctx-rh-posteriorcingulate	ctx-rh-precentral	ctx-rh-precuneus	ctx-rh-rostralanteriorcingulate	ctx-rh-rostralmiddlefrontal	ctx-rh-superiorfrontal	ctx-rh-superiorparietal	ctx-rh-superiortemporal	ctx-rh-supramarginal	ctx-rh-frontalpole	ctx-rh-temporalpole	ctx-rh-transversetemporal	ctx-rh-insula
0	30	92.97173309326172	181.00863647460938	297.138671875	437.6737365722656	269.5045166015625	396.05181884765625	255.68128967285156	245.68838500976562	323.00628662109375	439.4591064453125	246.8578338623047	-279.0769958496094	359.3959045410156	668.8990478515625	106.2697982788086	143.3760528564453	273.874755859375	215.5535125732422	253.93800354003906	460.8223876953125	48.29696273803711	304.4082946777344	232.88742065429688	190.993896484375	139.1832275390625	-206.53208923339844	31.339143753051758	91.74185943603516	201.36903381347656	143.78514099121094	247.46690368652344	110.32994842529297	410.6969909667969	554.4038696289062	359.928466796875	495.80194091796875	89.54412078857422	325.3405456542969	353.7422790527344	305.6440734863281	430.80096435546875	317.2655029296875	519.7388305664062	452.5701599121094	747.6268310546875	304.5406799316406	683.5493774414062	432.02264404296875	413.1528625488281	447.3743591308594	549.3301391601562	427.0351867675781	369.32452392578125	538.0572509765625	296.3473815917969	359.3564453125	816.6822509765625	434.2130126953125	457.4368591308594	250.62481689453125	529.66748046875	482.3883972167969	282.6038513183594	324.60113525390625	428.56549072265625	710.7993774414062	366.43609619140625	657.533447265625	346.6584777832031	421.3705139160156	873.0438232421875	357.87738037109375	291.49420166015625	263.7257385253906	190.1591339111328	249.0675811767578	583.917724609375	323.2563171386719	573.1891479492188	299.16351318359375	599.9832763671875	409.8920593261719	585.9287719726562	445.4714660644531	376.2417907714844	573.119140625	366.83319091796875	200.97930908203125	376.1422119140625	369.391845703125	468.0985412597656	284.6888122558594	326.6837463378906	135.17652893066406	546.9837036132812	431.267578125	82.56233978271484	224.78121948242188	737.0216064453125	474.7293701171875
30	60	1113.305419921875	2870.938232421875	4907.6044921875	5407.09765625	6102.29833984375	7669.3623046875	3153.177978515625	3587.310791015625	5450.59033203125	4032.24072265625	1966.1571044921875	4216.70947265625	3259.419189453125	16274.1083984375	1224.52587890625	2478.95654296875	5381.62939453125	5076.7294921875	7098.8837890625	6796.55517578125	1857.7125244140625	4583.27490234375	4548.8369140625	3525.896240234375	3919.837890625	20098.435546875	155.11151123046875	1020.5164184570312	6115.57958984375	3693.427001953125	2296.83740234375	1483.5322265625	6763.54931640625	7256.607421875	8810.5537109375	10040.1845703125	4794.54150390625	6180.55126953125	6697.23388671875	6926.61181640625	7841.72119140625	6443.0595703125	7890.31494140625	7445.41357421875	9757.091796875	6256.2353515625	4414.484375	7091.16552734375	8693.10546875	8121.86669921875	8673.1171875	12405.6015625	7564.48583984375	6885.4033203125	7288.08984375	7967.23486328125	6543.54736328125	8713.4169921875	7781.23486328125	6679.146484375	6453.0341796875	7693.5087890625	8595.6875	4770.083984375	9738.244140625	7477.23095703125	6680.93115234375	6576.38134765625	7245.16162109375	9163.3173828125	4854.2333984375	6467.248046875	6962.169921875	5795.6845703125	7306.525390625	7059.240234375	8414.671875	7533.4541015625	8059.740234375	5498.26025390625	5921.22705078125	6136.9462890625	7631.82275390625	7159.37548828125	7463.79345703125	11043.6787109375	6577.5791015625	7256.080078125	7040.8486328125	7470.57421875	6569.10107421875	7757.70849609375	7313.0810546875	6183.896484375	6337.15966796875	7202.09228515625	9200.671875	3727.990234375	9907.6875	6229.38818359375
60	90	2544.859619140625	6009.86474609375	11918.220703125	11716.865234375	15579.189453125	18082.291015625	5388.28857421875	7840.50927734375	13048.7744140625	8595.8466796875	4565.037109375	10760.71484375	7864.1044921875	36302.25	2692.570556640625	6052.771484375	11736.6416015625	11763.546875	16484.98828125	15994.1376953125	6506.9892578125	11266.08203125	7304.45556640625	17854.779296875	8287.48046875	40888.734375	214.5019989013672	2067.770751953125	12005.1904296875	8029.2744140625	4074.6904296875	2800.5791015625	16670.529296875	16975.396484375	19637.83984375	20948.603515625	9220.0615234375	14077.375	16408.51171875	16025.765625	17044.443359375	15181.2353515625	18366.5703125	17502.771484375	19660.947265625	14504.8798828125	9184.9306640625	16948.0546875	18439.8828125	18646.6796875	19074.560546875	28788.81640625	18012.798828125	16858.3671875	17040.671875	18588.763671875	15633.8310546875	21055.341796875	18709.802734375	16246.3076171875	14605.375	18492.958984375	19340.52734375	11104.599609375	23277.24609375	14618.5556640625	15782.228515625	11970.376953125	17702.328125	21947.9296875	8899.751953125	14410.951171875	16282.822265625	13294.51171875	15898.8828125	16993.029296875	17924.89453125	17553.013671875	17236.103515625	13139.2646484375	9083.9404296875	13414.3212890625	15199.078125	15801.587890625	18463.46484375	27512.51953125	16627.2421875	15766.6259765625	16284.4833984375	17793.765625	15608.6845703125	18711.025390625	16919.216796875	15971.998046875	13544.359375	16738.873046875	21246.443359375	9797.5126953125	18018.53125	14590.3818359375
90	120	4484.8466796875	11390.388671875	20689.064453125	20976.71484375	28930.1796875	32431.091796875	9992.6201171875	12009.2548828125	21612.34765625	15654.5693359375	7670.4765625	20368.77734375	13868.4384765625	77900.2734375	4939.94287109375	11030.66015625	21475.033203125	21841.66015625	28276.72265625	29243.953125	9516.171875	20282.7109375	15286.255859375	23553.4296875	16505.412109375	69744.0	665.8980102539062	3740.70263671875	25933.71484375	15274.9287109375	6320.70458984375	4799.94482421875	31098.580078125	27369.591796875	37900.92578125	39136.828125	18923.27734375	25366.0625	30813.53125	29089.685546875	30750.365234375	28103.607421875	33390.52734375	31631.01953125	36014.3359375	26735.83984375	20831.275390625	31388.189453125	34454.328125	31496.490234375	35762.94921875	55370.5625	33807.03515625	33085.9609375	31335.44140625	35650.53515625	28801.146484375	37062.109375	34317.7109375	29175.048828125	25878.61328125	33078.38671875	35301.84375	19915.861328125	35853.07421875	25949.8671875	29039.7421875	21663.4296875	32637.751953125	40597.0	14757.6953125	24681.798828125	30807.521484375	25082.666015625	30939.984375	31821.98828125	33333.47265625	32314.22265625	33730.53125	24066.119140625	18476.662109375	27397.263671875	31242.896484375	28857.8203125	33520.95703125	48313.1171875	32115.33203125	29044.267578125	29828.400390625	32127.267578125	26175.267578125	33620.44921875	31781.3671875	31335.654296875	25822.162109375	31069.220703125	34923.19140625	20024.556640625	33165.26171875	25207.3125
120	150	6323.8076171875	14982.6328125	29592.822265625	28869.94140625	39407.7109375	44197.32421875	14821.0498046875	17092.61328125	26959.880859375	22070.412109375	12325.5068359375	31652.7421875	20163.28125	64290.87109375	6653.232421875	15941.013671875	29410.431640625	29524.658203125	41282.078125	42204.2890625	12844.787109375	27095.7265625	21467.146484375	20117.7734375	19866.21484375	87726.2265625	901.92529296875	4849.98486328125	34299.98828125	21040.154296875	6893.07177734375	6268.427734375	40486.19140625	32495.099609375	52135.80859375	56096.0546875	23157.966796875	35563.22265625	40841.1640625	38856.03515625	40413.7578125	41698.65625	44023.48046875	46064.72265625	48340.38671875	36481.23046875	30321.9296875	39509.38671875	46684.32421875	43895.91015625	47671.73046875	82366.2421875	45313.8359375	40862.12109375	44624.19921875	46576.4609375	37773.234375	51186.703125	47411.91796875	44252.34375	36034.46484375	44323.6953125	48797.6484375	29323.703125	43498.49609375	33135.10546875	40617.92578125	33080.6640625	46838.8671875	58814.1875	20730.427734375	34170.13671875	42264.921875	36181.3125	39579.28515625	46644.08203125	42347.94921875	44022.91796875	43080.80078125	33764.63671875	20196.544921875	40716.52734375	40963.3671875	39577.3203125	45233.76953125	73112.828125	44484.59765625	38713.078125	42462.9140625	44985.70703125	31789.9453125	47802.1015625	43752.35546875	43601.12109375	34945.328125	43577.60546875	49411.46484375	27045.052734375	49684.5703125	31684.814453125
150	180	7129.70361328125	16030.880859375	30869.17578125	31297.44921875	45308.8125	45335.30078125	16453.818359375	18008.5	27314.73046875	22882.1875	9354.9482421875	28621.701171875	21432.48046875	80518.0703125	7089.4765625	16198.3017578125	30694.021484375	31226.275390625	43899.8203125	44386.40625	15406.77734375	28767.28515625	22351.275390625	25914.658203125	20653.197265625	66150.1640625	747.3538208007812	5103.19189453125	34748.44140625	22318.39453125	5447.0146484375	6674.07763671875	44893.1796875	39584.37890625	52027.90234375	59274.2421875	25585.138671875	36135.12109375	44108.07421875	40540.00390625	41907.90234375	41799.8671875	47042.8828125	44467.5	47311.484375	39538.80859375	27884.447265625	43481.90625	48944.078125	43075.1015625	48690.03125	83676.9921875	47999.2109375	41924.2734375	46347.70703125	47621.15625	38845.65625	53061.8046875	47554.2890625	45198.1796875	35267.5859375	45364.5703125	50953.08203125	26238.765625	53019.578125	32933.2578125	42328.609375	29777.810546875	48842.0859375	63399.0546875	18408.998046875	36926.71875	45762.7734375	38233.5390625	44022.59765625	46705.109375	44276.51953125	47837.546875	47902.33984375	36618.24609375	20573.154296875	39133.98046875	43052.46875	41793.47265625	45879.078125	74731.015625	45350.99609375	38787.94140625	46007.92578125	46481.10546875	28089.658203125	50071.45703125	46366.69921875	46778.05859375	36569.25	44859.4453125	50141.28515625	25965.259765625	51503.87890625	33604.109375
180	240	7181.6640625	16092.2080078125	30100.51171875	30695.71484375	43977.078125	44734.31640625	17988.1953125	18344.9296875	24966.408203125	23805.76171875	7412.90625	25877.857421875	19848.84375	52291.9453125	7160.89453125	15104.443359375	30612.404296875	30660.234375	45997.47265625	44129.0859375	16507.580078125	26320.876953125	23876.806640625	19991.486328125	21408.447265625	79594.09375	586.09326171875	5081.91064453125	35064.63671875	21505.38671875	4352.9326171875	6807.62060546875	41280.52734375	32647.9765625	51629.484375	57284.82421875	25322.666015625	34676.49609375	42596.8046875	41006.1015625	37691.15234375	42241.140625	43055.1875	45952.3671875	47853.01953125	38713.34375	26452.466796875	42916.6328125	45678.2890625	41534.140625	46905.109375	81982.5234375	48621.0078125	42409.7578125	45801.03125	47174.03515625	37273.62109375	52299.328125	47249.125	46839.07421875	35938.99609375	43995.703125	46857.75	30762.775390625	50751.77734375	32332.888671875	41242.5234375	36289.64453125	48749.3203125	61423.5859375	22103.744140625	35225.81640625	44292.40234375	37388.51171875	38583.109375	47776.1171875	43887.53515625	44940.40625	44709.00390625	36774.125	24928.70703125	42029.16796875	41346.72265625	42233.7890625	45897.29296875	66589.4140625	44869.421875	38643.08984375	44699.5390625	45137.29296875	33534.50390625	48805.1640625	44853.19140625	47525.765625	35372.4453125	45221.80078125	50657.75	27769.162109375	49168.28515625	31137.087890625
240	300	7520.072265625	15458.3212890625	28341.4375	28836.197265625	39552.01171875	43930.34375	18423.228515625	18608.76171875	24478.060546875	22794.080078125	7082.3291015625	28152.99609375	19323.978515625	41759.3671875	7208.623046875	15027.302734375	28700.44140625	29539.251953125	40981.38671875	42095.98046875	16063.5380859375	25896.9921875	20792.240234375	19500.6875	20791.421875	58364.203125	546.2928466796875	5001.25341796875	34029.50390625	20083.470703125	3784.435791015625	6901.38525390625	41683.8984375	32314.419921875	47194.5625	52808.83203125	23647.421875	33519.03515625	39541.8984375	38590.984375	33587.26953125	38925.51171875	40837.97265625	41318.99609375	44039.12890625	35758.4296875	24566.39453125	39037.984375	42642.796875	39604.44140625	43412.7109375	68509.3828125	43264.26171875	35618.625	42609.9140625	42915.53515625	34236.03125	47703.6484375	42063.703125	43058.47265625	33305.54296875	40373.50390625	42511.38671875	28687.76171875	45567.32421875	32302.16015625	38271.0	33746.8203125	43559.70703125	54102.859375	17983.951171875	31702.72265625	40579.80078125	35417.53125	37141.2265625	44352.6328125	39684.78125	42309.47265625	42536.98046875	35380.31640625	23131.166015625	38545.48828125	39159.0390625	39839.8828125	42353.0390625	65756.34375	42521.94140625	38874.1171875	41252.9921875	42543.41796875	31585.3125	45232.703125	41949.87890625	44776.32421875	33885.73046875	41660.60546875	45677.74609375	27354.560546875	40905.40625	32302.62109375
300	360	7618.80615234375	15519.74609375	26240.134765625	28445.087890625	37415.67578125	39409.42578125	17590.462890625	16400.17578125	22978.689453125	24441.69921875	4994.01904296875	24741.1640625	19442.935546875	29799.5703125	7388.5947265625	15064.966796875	26483.744140625	28031.203125	37913.69921875	38503.80859375	17375.22265625	24377.193359375	21102.62109375	23086.71875	20677.255859375	54062.921875	335.1046142578125	5100.6328125	30216.048828125	20056.767578125	2807.687255859375	6897.517578125	35705.125	29364.1796875	42290.98046875	48339.3359375	20901.384765625	31181.4765625	36067.19140625	35383.5859375	31220.2421875	37243.9609375	35479.40234375	38858.30859375	41127.23828125	33217.4453125	26403.7109375	35184.09765625	38441.4609375	33898.3515625	40472.9453125	62748.203125	40189.2265625	36113.52734375	38307.171875	37607.16796875	33641.140625	43291.2734375	39701.19921875	40098.15625	31510.849609375	37705.5390625	40874.28125	27231.0234375	40034.05078125	29960.521484375	33788.84375	30836.84765625	40369.87109375	48353.72265625	19511.408203125	30776.35546875	38343.671875	32520.26953125	35581.16015625	41040.1796875	37301.51171875	38300.109375	38802.40234375	33206.85546875	24053.001953125	34889.61328125	36089.63671875	37496.18359375	40095.68359375	55720.75	38499.734375	33332.375	38292.3125	37456.17578125	29526.537109375	41991.46875	38787.65625	41379.4140625	31143.63671875	36933.046875	45849.46875	26240.767578125	37855.609375	30338.83984375
360	480	7951.2685546875	14023.9306640625	24030.873046875	25641.33984375	31779.18359375	36028.64453125	18151.7734375	16790.2890625	19722.98046875	21532.115234375	3262.11181640625	27076.919921875	18081.626953125	26617.47265625	7499.10400390625	14171.73046875	23887.904296875	26517.857421875	33695.44921875	34781.94140625	16722.724609375	21406.62890625	22185.70703125	23101.576171875	20678.119140625	38645.4609375	420.7293395996094	5190.76220703125	26153.134765625	18624.138671875	1756.2493896484375	6870.08056640625	31551.375	27110.05078125	36493.265625	43162.109375	21634.390625	27918.064453125	30960.728515625	31623.787109375	27947.078125	31999.236328125	31551.1640625	34949.7421875	36917.6796875	29296.8984375	24135.185546875	31924.02734375	32739.943359375	29775.845703125	33517.76171875	49897.19140625	34295.4375	30590.39453125	33788.01171875	33240.1171875	29013.658203125	37521.078125	34459.30859375	35231.19921875	28044.525390625	32729.5703125	35998.0625	26941.40234375	35276.34765625	27599.17578125	30264.806640625	26699.7421875	35237.94921875	42137.171875	20649.556640625	27362.990234375	33672.89453125	30102.0234375	32498.150390625	36642.1796875	32252.03125	34112.546875	32725.9765625	29290.525390625	21051.345703125	31321.197265625	31463.765625	33103.44140625	34061.37890625	47572.01171875	34737.1875	30218.505859375	33311.74609375	33389.578125	26592.689453125	36685.4921875	33876.4375	37239.5859375	28752.806640625	32824.76171875	36991.15625	24888.58203125	34806.703125	27577.435546875
480	600	8159.27734375	13855.8583984375	20617.265625	23878.716796875	27291.830078125	30813.79296875	17385.388671875	15079.732421875	17633.341796875	19986.029296875	1339.7274169921875	25223.53515625	18777.953125	12379.5654296875	7825.37744140625	13777.0869140625	20892.9609375	24349.208984375	28400.201171875	28548.279296875	16097.8662109375	18534.607421875	20512.86328125	22949.935546875	19068.85546875	24119.421875	394.30694580078125	5305.99853515625	20671.306640625	17700.6875	672.253173828125	6748.630859375	27249.080078125	24131.462890625	30129.521484375	35871.9609375	20988.673828125	24202.00390625	26511.115234375	27143.619140625	23041.65234375	26722.1484375	26725.626953125	29014.26171875	30528.1171875	24843.056640625	20882.91015625	27388.9296875	27161.30859375	25842.49609375	28131.244140625	40666.09765625	29111.255859375	25412.4609375	28833.626953125	28034.65625	26311.0390625	31995.689453125	28824.603515625	29934.763671875	24200.6484375	27184.48828125	31480.583984375	24336.4921875	30577.833984375	24592.62109375	25960.9609375	25624.2109375	29699.15625	35229.16015625	17862.880859375	24025.794921875	28905.4921875	26348.791015625	28736.76953125	31475.294921875	28142.1796875	28989.0625	28913.61328125	25942.4453125	19293.333984375	26414.521484375	26784.087890625	28445.443359375	30236.80078125	39659.96875	28914.6953125	27872.826171875	28510.833984375	28860.25390625	22875.32421875	31205.388671875	29138.125	31184.583984375	25015.224609375	28216.98828125	32248.87109375	22968.71875	29264.349609375	23299.486328125
600	900	8650.814453125	13109.3525390625	16436.169921875	20326.66015625	21554.740234375	23890.6640625	16535.111328125	13811.470703125	14212.6474609375	18521.3046875	156.19796752929688	20945.375	16869.373046875	12998.521484375	8220.2626953125	12765.9794921875	16965.701171875	20397.619140625	22148.62109375	23413.603515625	15407.2255859375	14142.158203125	17735.224609375	18165.041015625	17333.02734375	21331.33984375	232.86521911621094	5443.056640625	16381.7548828125	15204.4541015625	515.423583984375	6734.77001953125	21651.75	19114.05078125	23928.138671875	27968.984375	16978.9453125	19252.849609375	20773.185546875	21659.40234375	20012.30078125	21226.72265625	21223.869140625	23348.990234375	24140.603515625	20045.96875	18037.771484375	20568.607421875	21348.978515625	20425.359375	21863.490234375	28857.19140625	22194.005859375	20315.181640625	21776.486328125	21519.3046875	20690.55859375	25015.21875	22626.17578125	23236.169921875	20128.197265625	21261.02734375	24300.537109375	22169.47265625	23616.341796875	20873.140625	19972.310546875	20709.205078125	23197.025390625	28302.529296875	16112.4150390625	19626.37890625	22889.919921875	21864.103515625	21405.900390625	24722.59375	21811.244140625	22534.275390625	22993.498046875	21613.4140625	17734.828125	20854.185546875	21176.052734375	22669.17578125	23831.390625	28438.37109375	22941.107421875	21582.0859375	22496.046875	22254.609375	19354.236328125	24721.03515625	22932.876953125	25108.77734375	20308.41796875	22093.7890625	25313.240234375	19742.48828125	21699.70703125	20489.841796875
900	1200	9046.6220703125	12033.4111328125	13218.80859375	16627.4296875	16607.892578125	18926.763671875	16139.44140625	12418.1708984375	11792.7861328125	15675.587890625	-1296.817138671875	17172.66796875	15807.4052734375	9404.08203125	8689.6953125	12458.236328125	13148.4267578125	17281.232421875	16036.529296875	17880.953125	15128.1787109375	11344.53515625	15881.1123046875	15110.658203125	15684.2900390625	16879.5	148.14735412597656	5679.5234375	13504.4033203125	14004.6962890625	519.6996459960938	6848.412109375	16965.544921875	16430.552734375	18446.41796875	22106.841796875	15765.3115234375	15955.2373046875	16581.529296875	18472.87890625	16921.8125	16818.587890625	17068.82421875	19262.109375	20225.162109375	16408.6953125	14260.81640625	15391.74609375	17024.59375	17133.75390625	17492.1953125	22766.71875	16883.79296875	16534.41015625	17247.1640625	16989.158203125	15965.4697265625	19713.677734375	17809.96484375	18635.65234375	16168.4736328125	16668.45703125	20630.9296875	17813.9609375	19481.62109375	17107.072265625	16163.328125	17310.021484375	18505.96484375	22199.013671875	14099.2294921875	16431.6640625	18310.4140625	18029.591796875	17975.26953125	20247.591796875	18108.962890625	18382.63671875	18348.568359375	17829.697265625	14259.3662109375	16953.607421875	17458.064453125	19103.30859375	18717.01171875	22769.919921875	17907.78125	16895.857421875	17247.890625	17585.58203125	15655.8896484375	19760.55859375	18068.677734375	19731.591796875	16728.380859375	17591.873046875	21028.73046875	17506.73828125	17652.896484375	16441.4453125
1200	1500	9412.734375	11973.9775390625	10959.2333984375	14189.345703125	12923.2265625	14878.4765625	14888.8671875	10875.7939453125	9175.0751953125	14529.3046875	-1011.4819946289062	11898.2587890625	14692.234375	5961.23828125	8981.8134765625	12258.2470703125	11108.3251953125	15066.5029296875	13058.8974609375	14405.68359375	14601.05078125	9935.22265625	13543.4736328125	13561.453125	14821.0908203125	5527.94677734375	56.04497528076172	6082.705078125	10869.6572265625	13132.29296875	504.11456298828125	6953.326171875	15956.3505859375	15030.123046875	15622.2041015625	20238.287109375	14657.625	14964.9794921875	14225.41796875	16208.130859375	15694.5078125	14867.2353515625	15555.9736328125	17599.84375	17201.935546875	13864.45703125	13129.361328125	13211.9033203125	15027.4150390625	14872.9716796875	15444.4541015625	19496.203125	14392.505859375	14428.787109375	14629.3828125	14802.0400390625	13967.6826171875	17112.720703125	15054.0341796875	16239.5361328125	14119.0654296875	14660.4150390625	17530.265625	16200.36328125	16887.728515625	15883.2333984375	14048.7294921875	13769.6396484375	16395.44921875	18907.712890625	10477.021484375	15181.1669921875	16127.435546875	16026.751953125	16135.8203125	18148.240234375	15694.65625	16397.349609375	16820.623046875	15432.78125	13577.244140625	14520.630859375	15566.595703125	16831.765625	16656.291015625	20546.716796875	15623.34765625	15357.0634765625	15055.943359375	15619.958984375	15573.134765625	17193.09375	15707.85546875	17431.81640625	14578.4736328125	15182.0751953125	19253.029296875	15335.6572265625	15567.8330078125	15097.0615234375
1500	1800	9532.9306640625	11296.015625	9617.296875	12804.0205078125	10678.8681640625	12846.9130859375	14391.1640625	10089.2490234375	8685.771484375	11370.296875	-741.2766723632812	8653.548828125	13989.5	3126.837890625	9170.0205078125	11148.7705078125	9895.2412109375	12756.0009765625	11632.1904296875	12863.3642578125	13024.10546875	9601.376953125	11163.427734375	12685.6455078125	13355.57421875	-334.04754638671875	106.3898696899414	6215.33447265625	8414.5166015625	12658.0263671875	629.878662109375	7157.92919921875	13919.662109375	14035.126953125	13880.1923828125	17703.970703125	12906.970703125	14108.9326171875	13003.1259765625	14822.0751953125	13549.2802734375	13512.02734375	13381.0439453125	16918.138671875	15789.8056640625	12648.2734375	11686.3447265625	11414.8037109375	13611.1162109375	13177.1435546875	13802.09765625	16146.31640625	13005.501953125	12796.224609375	12938.921875	13672.8828125	13544.94140625	15361.16796875	13234.7412109375	14224.734375	12850.525390625	12993.2900390625	15778.2275390625	15733.2568359375	15743.169921875	14268.3203125	12912.556640625	12014.7978515625	14076.060546875	16985.689453125	11617.169921875	13996.7138671875	14450.068359375	14851.1142578125	14105.552734375	16821.9140625	14340.1591796875	15373.421875	15291.17578125	14224.283203125	11345.84765625	11617.8212890625	13924.58984375	15437.6357421875	15396.2900390625	17066.794921875	13812.4658203125	14082.0830078125	13133.7353515625	14121.2646484375	12180.7431640625	15569.7421875	13868.03125	15653.0830078125	13190.677734375	13506.033203125	18568.193359375	12604.095703125	15624.947265625	13566.06640625
1800	2100	9510.673828125	10745.787109375	8398.1552734375	11185.54296875	9338.9912109375	11458.1630859375	13992.138671875	8835.4208984375	7579.98388671875	10801.1787109375	-750.057373046875	7940.96337890625	12043.228515625	-575.9816284179688	9148.9599609375	10350.2109375	8604.876953125	11715.29296875	10064.0078125	10980.1640625	12332.494140625	8238.0205078125	10516.162109375	10661.685546875	13323.3115234375	3488.33154296875	-46.80862045288086	6304.14794921875	8501.201171875	12085.6982421875	861.8964233398438	7056.3876953125	12704.8037109375	11989.09375	11444.6455078125	15597.7216796875	10324.0185546875	13113.701171875	11715.4296875	13616.6064453125	11690.669921875	12377.283203125	12430.22265625	15361.396484375	14432.677734375	11264.248046875	11852.5576171875	9981.5634765625	12177.73828125	13510.8037109375	12287.12109375	15529.5	11313.1953125	12085.205078125	11511.9375	12396.66796875	12733.4150390625	13902.5634765625	11633.0625	12816.6318359375	11374.044921875	11571.7275390625	15500.89453125	13111.7216796875	15688.759765625	12732.2177734375	11625.310546875	11318.8251953125	12605.7685546875	14826.599609375	9991.587890625	13017.6884765625	13063.5126953125	13653.99609375	13771.662109375	15615.8271484375	12919.408203125	13835.068359375	13714.3662109375	12536.5224609375	10353.9638671875	10413.0458984375	12913.10546875	14150.63671875	13740.208984375	16277.0654296875	12603.25	12054.0927734375	11499.18359375	12668.35546875	10556.615234375	14242.400390625	12304.564453125	14016.7978515625	11956.3515625	12346.333984375	14920.0546875	10716.7158203125	12944.5380859375	12339.220703125
2100	2400	9375.9013671875	10162.3349609375	7529.80908203125	9759.400390625	7913.978515625	9932.3369140625	11799.3896484375	8027.73876953125	6703.9208984375	10919.4443359375	-622.8258666992188	6932.0859375	11487.337890625	-2233.012939453125	9039.982421875	10663.3916015625	7527.24365234375	9843.0029296875	7836.0048828125	9452.6201171875	10802.1796875	6870.7255859375	8910.9873046875	5649.70849609375	11886.8369140625	3286.814697265625	-57.06333923339844	6313.39892578125	7488.91259765625	10685.75390625	1037.774169921875	7092.701171875	10829.03125	10228.3203125	10887.3603515625	14862.5341796875	9912.8779296875	11991.490234375	10714.80859375	12122.8525390625	11895.876953125	11309.7861328125	11439.998046875	14036.9345703125	13707.7177734375	10099.6201171875	10627.3134765625	7984.0673828125	11214.7900390625	10245.154296875	11464.9931640625	14229.990234375	10395.6689453125	11082.19140625	9968.25390625	10855.90625	10874.3505859375	12362.267578125	10156.0517578125	11393.0126953125	10496.7919921875	10406.32421875	13527.271484375	12375.640625	12469.6396484375	11145.2978515625	10497.8798828125	12231.6298828125	11545.611328125	14201.4013671875	9175.2841796875	12408.333984375	11756.689453125	12535.748046875	12340.2587890625	14340.365234375	11445.525390625	13097.2705078125	12627.396484375	11561.4443359375	9877.7626953125	9620.365234375	12225.9248046875	12975.58984375	12395.25	14123.2197265625	11004.2255859375	9832.185546875	10047.046875	11590.8837890625	9083.61328125	12670.416015625	10696.142578125	12207.4853515625	10899.0615234375	11116.775390625	15793.8564453125	11079.904296875	14268.1328125	10901.962890625
2400	2700	9099.759765625	9815.98046875	6290.17919921875	8414.484375	6898.50341796875	8661.6298828125	10014.13671875	6737.1826171875	6977.64599609375	7061.62890625	-255.2484130859375	3277.595947265625	10669.08984375	-6648.2734375	8790.6953125	9682.5771484375	6515.33642578125	8936.7880859375	6999.10107421875	8478.1640625	10781.212890625	6665.3095703125	7645.62353515625	4898.28125	9710.3740234375	507.9165344238281	-87.31301879882812	6306.32177734375	6584.2841796875	10115.12109375	1083.0325927734375	7040.98193359375	10786.3828125	9711.412109375	9182.6630859375	13430.560546875	9013.5732421875	11313.904296875	9710.7578125	11099.0556640625	11235.1396484375	10144.8681640625	10721.244140625	12886.783203125	12150.71875	9343.5419921875	9525.23828125	7289.21630859375	9671.62890625	10553.2900390625	10076.998046875	13131.9814453125	8834.654296875	9182.181640625	8585.3212890625	10390.8759765625	10174.9033203125	11230.990234375	8842.9482421875	10616.0927734375	9038.4052734375	9486.275390625	12637.5322265625	11082.1748046875	11752.810546875	10781.9326171875	10193.626953125	10068.0703125	10385.4453125	13249.0859375	8806.0166015625	11150.51953125	11244.494140625	11430.9931640625	11624.69921875	13486.3984375	11097.83984375	12341.2646484375	10966.83203125	10963.6826171875	8400.3525390625	7170.552734375	10828.34765625	11369.130859375	12700.279296875	12132.0986328125	10080.201171875	9885.8642578125	9071.8134765625	10724.2451171875	8159.23583984375	11782.125	9681.373046875	11557.953125	9588.75	9918.2548828125	12830.9775390625	8527.0380859375	10842.8671875	9390.24609375
