frame_start	frame_end	Left-Cerebral-White-Matter	Left-Cerebellum-White-Matter	Left-Cerebellum-Cortex	Left-Thalamus	Left-Caudate	Left-Putamen	Left-Pallidum	Brain-Stem	Left-Hippocampus	Left-Amygdala	CSF	Left-Accumbens-area	Left-VentralDC	Left-choroid-plexus	Right-Cerebral-White-Matter	Right-Cerebellum-White-Matter	Right-Cerebellum-Cortex	Right-Thalamus	Right-Caudate	Right-Putamen	Right-Pallidum	Right-Hippocampus	Right-Amygdala	Right-Accumbens-area	Right-VentralDC	Right-choroid-plexus	AirCavity	Skull	Vermis	Pons	CSF-ExtraCerebral	Head-ExtraCerebral	ctx-lh-bankssts	ctx-lh-caudalanteriorcingulate	ctx-lh-caudalmiddlefrontal	ctx-lh-cuneus	ctx-lh-entorhinal	ctx-lh-fusiform	ctx-lh-inferiorparietal	ctx-lh-inferiortemporal	ctx-lh-isthmuscingulate	ctx-lh-lateraloccipital	ctx-lh-lateralorbitofrontal	ctx-lh-lingual	ctx-lh-medialorbitofrontal	ctx-lh-middletemporal	ctx-lh-parahippocampal	ctx-lh-paracentral	ctx-lh-parsopercularis	ctx-lh-parsorbitalis	ctx-lh-parstriangularis	ctx-lh-pericalcarine	ctx-lh-postcentral	ctx-lh-posteriorcingulate	ctx-lh-precentral	ctx-lh-precuneus	ctx-lh-rostralanteriorcingulate	ctx-lh-rostralmiddlefrontal	ctx-lh-superiorfrontal	ctx-lh-superiorparietal	ctx-lh-superiortemporal	ctx-lh-supramarginal	ctx-lh-frontalpole	ctx-lh-temporalpole	ctx-lh-transversetemporal	ctx-lh-insula	ctx-rh-bankssts	ctx-rh-caudalanteriorcingulate	ctx-rh-caudalmiddlefrontal	ctx-rh-cuneus	ctx-rh-entorhinal	ctx-rh-fusiform	ctx-rh-inferiorparietal	ctx-rh-inferiortemporal	ctx-rh-isthmuscingulate	ctx-rh-lateraloccipital	ctx-rh-lateralorbitofrontal	ctx-rh-lingual	ctx-rh-medialorbitofrontal	ctx-rh-middletemporal	ctx-rh-parahippocampal	ctx-rh-paracentral	ctx-rh-parsopercularis	ctx-rh-parsorbitalis	ctx-rh-parstriangularis	ctx-rh-pericalcarine	ctx-rh-postcentral	ctx-rh-posteriorcingulate	ctx-rh-precentral	ctx-rh-precuneus	ctx-rh-rostralanteriorcingulate	ctx-rh-rostralmiddlefrontal	ctx-rh-superiorfrontal	ctx-rh-superiorparietal	ctx-rh-superiortemporal	ctx-rh-supramarginal	ctx-rh-frontalpole	ctx-rh-temporalpole	ctx-rh-transversetemporal	ctx-rh-insula
0	30	120.98588562011719	687.0965576171875	517.0880737304688	860.3275146484375	1284.429931640625	923.1824951171875	-70.221435546875	671.696533203125	443.5811462402344	1372.38037109375	-91.72164916992188	1956.3304443359375	1733.4014892578125	7954.763671875	220.48336791992188	349.5623474121094	542.9527587890625	678.4611206054688	1157.5107421875	851.8158569335938	490.01849365234375	779.4234008789062	-25.255165100097656	2629.790771484375	1051.0654296875	2486.542724609375	-114.09770965576172	237.09336853027344	559.4398803710938	485.57550048828125	944.3885498046875	189.19146728515625	2086.28125	1559.290771484375	1051.60986328125	975.252197265625	946.2699584960938	720.6572265625	801.9811401367188	556.739501953125	833.2647094726562	657.3837890625	1441.9698486328125	1823.177001953125	1748.71240234375	476.73016357421875	-311.7255859375	961.933349609375	1693.0660400390625	811.6650390625	1274.1990966796875	1548.5718994140625	891.337890625	1247.7803955078125	821.6493530273438	796.710205078125	1675.820068359375	1153.0518798828125	1073.49609375	587.43505859375	854.80859375	1384.193115234375	1960.7421875	214.80029296875	2054.101806640625	2424.963623046875	972.2261352539062	275.3498840332031	756.0171508789062	1066.1123046875	2697.362548828125	1218.318359375	447.9416198730469	395.90643310546875	1448.746337890625	522.9471435546875	1897.1722412109375	1119.84326171875	938.6453857421875	241.9857940673828	-338.76068115234375	209.45870971679688	1365.4974365234375	556.6034545898438	1257.304443359375	918.325439453125	885.0767822265625	1164.4017333984375	757.8067626953125	1149.6116943359375	2611.435546875	934.1165771484375	988.8746948242188	295.01824951171875	1249.01123046875	965.6250610351562	1529.50439453125	159.1099090576172	220.63186645507812	1953.167724609375
30	60	1682.466064453125	5719.71630859375	8892.5908203125	11481.0791015625	17066.962890625	13829.0986328125	4529.21533203125	6192.73486328125	8690.6357421875	4805.25244140625	3117.47265625	15749.509765625	8760.91015625	53613.24609375	1674.8209228515625	6361.83251953125	8215.7314453125	12321.37109375	13646.7197265625	16030.9580078125	2813.77880859375	9435.2353515625	10375.5380859375	11223.7763671875	6223.763671875	30961.591796875	-449.27093505859375	3044.00390625	12842.7001953125	6659.203125	6430.08447265625	2570.265625	18230.490234375	11113.9228515625	15556.109375	18675.177734375	8233.173828125	14249.908203125	12245.6611328125	10225.98828125	14731.4150390625	11494.30078125	16629.74609375	17127.2421875	13007.5185546875	8550.298828125	4315.78564453125	13865.220703125	17789.365234375	9091.154296875	16726.2734375	25949.849609375	13045.0703125	11590.271484375	13783.986328125	13110.0361328125	11513.1650390625	16518.3359375	14077.361328125	11787.1630859375	10684.701171875	12868.2587890625	21833.36328125	5809.072265625	26843.99609375	14307.9208984375	16289.78125	10561.6640625	14507.5126953125	19146.927734375	6985.162109375	14370.865234375	11354.171875	8176.80322265625	15502.111328125	13181.3134765625	15607.4755859375	15990.3662109375	14806.935546875	8782.1962890625	3863.033447265625	13147.583984375	16431.447265625	11902.3525390625	18883.228515625	25104.42578125	14115.697265625	18022.67578125	11665.3994140625	15972.9052734375	16392.830078125	15012.9482421875	14959.091796875	10187.759765625	12475.8828125	12649.7158203125	23340.44140625	6753.05615234375	15994.837890625	12110.04296875
60	90	3094.375244140625	12215.892578125	21307.158203125	27975.298828125	37343.1640625	39529.8203125	7014.916015625	11415.0166015625	19399.34765625	15787.1484375	4933.8056640625	23717.80078125	21341.6640625	160412.359375	4794.9169921875	16164.0615234375	19093.697265625	29816.134765625	37650.45703125	33629.62109375	6137.33349609375	26377.267578125	14288.9775390625	6447.47509765625	18491.6640625	56877.7265625	-776.3799438476562	6769.8330078125	31390.77734375	16148.7880859375	10086.771484375	5659.6845703125	46603.7578125	33736.5390625	39550.3203125	55366.53125	24965.7578125	33348.61328125	32723.990234375	27593.11328125	42454.46484375	31517.724609375	38666.38671875	43655.25390625	36456.328125	23892.099609375	15797.25390625	44047.328125	42175.8359375	35447.22265625	41474.18359375	70237.4296875	33707.36328125	37757.3828125	36666.16796875	34213.2734375	38409.90234375	41765.0	38835.046875	34206.0546875	30043.15625	34862.96484375	51749.91015625	18903.50390625	52719.296875	30190.99609375	34868.234375	25205.65234375	37983.28515625	47530.9921875	18441.728515625	34522.0703125	28773.7109375	20802.84765625	38134.4609375	35686.83203125	37310.36328125	38406.98046875	36909.88671875	23004.884765625	7179.84521484375	26463.47265625	40131.3828125	35606.5859375	40109.2890625	56132.8046875	33735.1796875	33481.7265625	33738.03515625	41853.91796875	22756.939453125	38534.953125	34208.33984375	32861.08984375	30203.556640625	33468.94921875	57342.34375	22452.35546875	43865.17578125	29474.634765625
90	120	5930.35205078125	23022.134765625	33564.859375	47462.03125	60477.98046875	63719.04296875	15271.705078125	18380.283203125	34890.57421875	26848.822265625	11523.5302734375	30559.451171875	29235.033203125	206552.96875	8412.2802734375	27580.333984375	30952.3046875	46775.00390625	61435.140625	60660.84375	10362.2861328125	39564.65234375	29812.365234375	19404.87890625	25739.8515625	106760.5234375	-1351.0419921875	10013.48046875	53155.55078125	26485.615234375	17861.365234375	8701.701171875	73463.6171875	48518.63671875	66776.9609375	86235.15625	31320.580078125	57687.3203125	53855.28515625	41645.51953125	58252.97265625	49645.8125	64630.4375	70947.703125	59798.66796875	41631.83203125	22091.845703125	65352.84375	67315.7890625	53650.6484375	64208.66796875	111729.4609375	57506.74609375	54191.25	59100.92578125	56548.95703125	59237.78125	68236.859375	62004.9453125	57234.19921875	46850.8984375	57031.22265625	87037.7265625	30499.84375	93859.953125	44125.0859375	50229.55859375	36969.4375	61091.7109375	83818.3203125	20940.037109375	56939.23046875	51177.09765625	30791.19921875	60087.84765625	55655.02734375	59355.0625	58352.62890625	60781.30859375	42103.875	14575.0185546875	49183.0546875	62363.3828125	59398.671875	65677.3046875	96926.9296875	62731.87109375	49864.109375	51962.1328125	69599.8125	38632.34375	65143.66015625	57625.4453125	53153.21875	49213.4375	54004.48046875	86908.640625	29798.51953125	56140.23828125	42482.9140625
120	150	8323.201171875	33724.34765625	43471.22265625	66570.9453125	83631.1796875	89504.203125	19891.814453125	22103.33203125	47513.828125	32584.162109375	14302.7568359375	32591.529296875	36390.53515625	286050.15625	11527.7626953125	37609.53515625	40417.9765625	63064.63671875	84919.7109375	86481.7734375	8762.2041015625	56276.17578125	38604.04296875	15865.6640625	31058.708984375	149360.5625	-573.219970703125	12593.447265625	75182.0703125	33990.79296875	22817.734375	11350.353515625	96458.5703125	69568.640625	93940.5390625	115489.6640625	44418.57421875	77741.796875	76591.4140625	57393.8828125	77312.484375	68293.3203125	85975.8125	96107.265625	84430.96875	59584.296875	29177.046875	97730.0078125	90302.7109375	75046.9765625	88523.203125	149197.21875	82288.078125	66435.0390625	80083.8984375	80411.7265625	67232.0078125	96752.5625	84379.6875	80212.546875	60612.30859375	78327.3984375	104796.8046875	41408.5390625	116050.609375	60431.83984375	58327.56640625	40801.125	87789.40625	98552.8046875	17208.669921875	77245.359375	69406.6171875	45011.6484375	60876.875	75430.015625	79727.6640625	81986.4453125	81657.03125	59314.984375	11518.8896484375	63838.046875	83044.5859375	88942.890625	89906.75	119285.9765625	84666.4765625	75515.6171875	70920.5625	94460.9375	56695.1796875	90080.40625	77358.359375	76194.0859375	65947.9296875	79657.765625	121774.5234375	37057.1328125	71271.671875	58573.4609375
150	180	9593.595703125	33849.75390625	47372.3203125	71079.5859375	97070.0234375	97211.84375	20269.154296875	23374.318359375	56175.765625	27329.626953125	16460.0078125	47831.390625	34924.03515625	275894.40625	11452.1923828125	40306.4921875	44093.484375	71584.765625	94341.953125	96688.2109375	10071.18359375	59962.1484375	42853.203125	-380.8793029785156	30666.408203125	130423.625	-1965.177978515625	13398.037109375	79742.9296875	37729.328125	18226.392578125	12239.4970703125	106493.2265625	68372.1328125	99315.546875	126415.6015625	41869.31640625	85706.8828125	84670.3125	55669.1875	78589.703125	75932.0859375	90564.359375	106000.609375	85806.96875	67553.109375	33086.0390625	108300.71875	95890.609375	86345.546875	92750.3671875	156859.484375	90035.5234375	78012.609375	86765.609375	85924.71875	75687.6171875	105419.9453125	90394.65625	88939.515625	64981.9765625	84428.0625	112413.609375	47482.86328125	123096.359375	62486.0703125	68283.8828125	47820.2265625	95700.0390625	111414.875	12287.4541015625	84739.9765625	80803.9765625	51044.69140625	77597.0390625	87948.9453125	82448.7109375	88124.171875	94193.390625	69250.96875	18694.677734375	72315.0	94105.7421875	94327.9375	96299.3359375	135663.59375	98648.3828125	75861.0078125	80804.5546875	104465.9375	55828.14453125	97612.5625	89839.3203125	88336.609375	70748.59375	85134.546875	141380.234375	44408.01171875	90681.578125	57487.22265625
180	240	10022.2822265625	35294.97265625	48365.52734375	75818.828125	95654.3359375	99267.1953125	24161.076171875	24508.357421875	57438.4296875	31903.625	13479.1669921875	51208.07421875	32957.58203125	215774.234375	12218.939453125	38929.22265625	46418.27734375	74088.4765625	98367.4921875	98712.5	10051.8974609375	62764.609375	46044.74609375	7421.75390625	31480.693359375	127651.828125	-2469.960205078125	13977.212890625	81416.65625	38544.18359375	14314.8125	12403.546875	103954.9140625	73188.296875	102250.5859375	127146.078125	46389.45703125	90142.21875	85198.1328125	59097.53125	84432.1015625	74921.546875	92998.1640625	108936.9140625	85718.71875	69395.3671875	34146.171875	104412.453125	98128.8828125	81125.953125	93800.3046875	149117.640625	93831.34375	76059.0546875	91471.9296875	85558.3203125	76614.953125	105486.0390625	93537.265625	96853.625	67021.3828125	84244.0078125	113853.2890625	52358.703125	122218.921875	62283.83203125	67734.609375	46706.6328125	96158.46875	105380.2890625	11747.26171875	87080.8203125	83338.0234375	49602.53125	81891.7578125	88135.40625	83405.7421875	90724.7421875	93790.3828125	73692.1015625	16132.3232421875	75128.3359375	92212.75	92858.9296875	99540.3359375	136530.421875	97716.515625	79459.6953125	83301.234375	107380.40625	60771.18359375	99820.3984375	91653.1796875	92644.046875	72523.0390625	86304.671875	130218.859375	49989.22265625	78187.5625	58660.38671875
240	300	11879.2060546875	35073.40625	46744.234375	76540.421875	88959.390625	98320.1015625	21241.751953125	26052.748046875	56349.3984375	34543.91015625	12109.59765625	33769.69921875	37882.640625	175831.03125	14832.0546875	38490.5546875	45039.73046875	69794.0234375	92849.65625	95243.640625	15815.9873046875	61621.4453125	50228.76171875	27387.1484375	30960.458984375	114092.3515625	-1030.27880859375	13604.6025390625	81712.1015625	37285.74609375	12599.4716796875	12775.8662109375	94784.7265625	71031.6328125	97742.09375	125152.515625	52981.44140625	84651.609375	83504.640625	59229.8125	83665.328125	71682.4140625	86294.0859375	103684.8828125	91131.34375	68251.5703125	34814.296875	102318.7265625	92080.2421875	86434.40625	85575.109375	134685.171875	89097.78125	75894.6484375	86575.2265625	84318.484375	79209.390625	98870.7265625	89956.2265625	89858.3125	64320.75390625	81927.9296875	104888.2109375	49356.36328125	103553.0859375	60515.9140625	62683.7421875	35862.33984375	90631.3515625	93504.1796875	8387.3095703125	85330.390625	78703.375	47315.75	76181.484375	81710.6953125	79597.9375	87663.4140625	84074.5625	71245.65625	18677.5546875	73441.0625	90176.6796875	88024.2890625	89072.09375	117724.0703125	97038.296875	64874.2265625	81057.3828125	100071.546875	48822.0390625	95532.8828125	85875.328125	87814.2421875	72393.53125	81752.65625	130766.40625	54195.578125	78149.1015625	54566.36328125
300	360	10932.4091796875	34053.12890625	45736.484375	75161.84375	89220.8828125	98041.625	18387.123046875	27528.13671875	53849.93359375	36515.15625	7473.72998046875	48113.6875	36428.48828125	176996.046875	14712.2412109375	36874.875	43967.078125	69488.25	90031.484375	90575.96875	15102.7880859375	59444.75390625	51421.29296875	23441.70703125	32542.19140625	94298.5859375	-1850.5179443359375	13721.62890625	72831.46875	38234.56640625	7396.34423828125	12554.326171875	90025.8125	84590.234375	94677.40625	116192.9140625	51316.05859375	80998.9296875	81772.3359375	60523.46875	82456.1484375	69754.109375	82967.46875	102335.3203125	89440.3515625	68082.3828125	41389.53515625	105208.765625	88338.390625	83364.46875	86312.28125	127032.8359375	84991.515625	78726.765625	84736.7734375	82081.5859375	81328.15625	95110.421875	88551.1796875	90867.2265625	63003.8125	78967.5859375	98492.828125	51521.5234375	99353.640625	58783.31640625	65227.3671875	29286.2265625	87703.4296875	85999.2734375	11272.353515625	82362.015625	76616.0703125	44683.78125	74615.2890625	79478.0234375	74297.46875	82416.6953125	78690.6015625	67982.734375	19993.181640625	66093.8046875	83961.2890625	80871.0546875	83866.703125	117568.8515625	95145.078125	61326.18359375	78905.671875	97231.09375	42629.546875	92188.3515625	82305.84375	87338.375	70903.734375	77940.7734375	125663.703125	55386.8671875	62331.1640625	54251.53515625
360	480	11754.693359375	32300.44921875	43208.12109375	72355.203125	79828.0	85571.421875	27739.201171875	28988.501953125	48105.8984375	41475.9609375	3616.95849609375	35464.6015625	35954.62109375	140304.28125	14818.98828125	34797.51171875	41192.91796875	66705.9453125	84446.9609375	83419.484375	18083.880859375	55610.12109375	54154.375	27602.60546875	31328.318359375	66225.421875	-1559.7445068359375	13478.203125	67964.6796875	36486.4453125	3543.984130859375	12716.8779296875	82920.0	79037.7421875	86115.5390625	103665.3203125	59791.46875	73497.7890625	74813.515625	58632.3515625	72956.515625	62484.83203125	76461.8828125	90477.515625	79769.7109375	63685.7265625	43189.015625	99068.984375	78166.6484375	77245.3828125	79446.7421875	111872.7734375	79157.078125	72414.65625	76735.765625	73365.0703125	74943.3515625	86662.03125	80575.53125	82804.390625	59283.07421875	71216.484375	96349.8125	50771.875	85649.234375	57093.67578125	61745.49609375	30635.693359375	78989.0234375	76582.0703125	17537.9765625	75758.7734375	71069.7578125	42860.33203125	74471.9296875	71450.0	67870.34375	75499.9140625	75263.1328125	65396.37890625	22543.177734375	62492.3203125	76907.34375	76932.078125	77786.140625	101814.8984375	85434.5390625	58061.140625	73451.96875	85153.0625	43622.42578125	84891.0859375	76666.046875	82120.34375	67484.9375	71188.359375	112042.09375	57895.1796875	63147.13671875	53216.87890625
480	600	14141.9990234375	29675.548828125	38720.0859375	64153.30859375	67805.1171875	72697.34375	29156.71484375	28803.802734375	43944.81640625	42008.35546875	-115.4385757446289	36746.63671875	36983.35546875	73658.5	15568.5029296875	30836.931640625	37662.59375	60546.125	71132.078125	72033.6953125	24797.470703125	47300.46484375	48053.59765625	37358.4921875	32838.0546875	69619.8828125	-1439.2042236328125	13494.4970703125	55994.9609375	35040.5859375	-577.2908935546875	12048.0009765625	65582.3359375	63264.90234375	70227.6640625	83410.359375	53584.91015625	62547.7421875	64018.44140625	51718.828125	64490.796875	52879.73828125	64441.09765625	75353.5	67813.6171875	54133.328125	45634.2890625	75859.9921875	65087.92578125	60405.96875	65571.6484375	87600.25	66525.953125	63619.66015625	67914.0546875	64016.60546875	61819.72265625	73251.109375	70033.5234375	72033.5625	52122.046875	59727.16796875	73887.75	50209.30078125	68991.7109375	53919.26953125	56240.16796875	34918.27734375	69177.7578125	71913.5078125	24155.583984375	62921.69921875	62783.99609375	42177.0	63176.27734375	62717.94921875	59808.234375	68000.3046875	63308.25	58315.09765625	27161.162109375	61598.546875	65935.4609375	61247.875	69163.9453125	75467.625	74017.6640625	53791.4140625	65397.390625	73678.2890625	42354.6484375	71804.8984375	68229.8984375	72375.796875	58753.71484375	60858.8125	89617.0625	52241.5390625	59229.4453125	48829.16796875
600	900	15638.265625	26529.037109375	32363.630859375	53611.87109375	50679.82421875	57276.94140625	28756.55859375	28249.375	32268.4453125	41495.98046875	-4902.1875	40610.27734375	36623.49609375	59871.73828125	15766.9736328125	27543.30078125	31780.443359375	51113.5625	58090.84765625	56614.2890625	27363.994140625	36656.8828125	48234.59375	27972.5703125	32772.5859375	56734.3203125	-1556.089111328125	12814.419921875	43952.85546875	31564.8203125	-4638.46533203125	11650.7236328125	53105.7578125	52785.74609375	56934.33203125	71258.4140625	56577.56640625	50312.90234375	49934.234375	46469.5625	53709.140625	42352.36328125	53420.4921875	58206.07421875	56541.34375	43480.89453125	42018.0078125	63013.25	51611.21875	54252.671875	52882.25390625	63207.4609375	52611.92578125	54548.31640625	55481.71484375	50755.2578125	49780.70703125	59267.4296875	56986.984375	59846.390625	42593.13671875	47818.0390625	65625.390625	46153.41015625	56152.97265625	46805.5078125	47739.43359375	39784.90625	57853.08984375	58088.06640625	30823.564453125	49115.96875	52972.48828125	37679.1640625	56828.84765625	51741.0546875	48871.9765625	52180.08984375	56609.19921875	49692.29296875	30239.791015625	49455.5390625	53294.90625	54909.734375	57640.03125	60861.98046875	61419.0859375	46035.77734375	55882.35546875	61530.37109375	40286.1796875	59868.9296875	57990.72265625	62412.3828125	49185.3828125	50311.6328125	71490.921875	46959.28515625	45731.51953125	44617.9921875
900	1200	17223.76953125	24781.44140625	23939.34375	40964.4453125	33684.9375	38480.0859375	31538.98828125	25467.390625	23026.099609375	37140.234375	-7361.275390625	33617.99609375	34466.41796875	33875.140625	16983.412109375	24946.462890625	24115.875	39630.00390625	38778.3359375	39959.20703125	30772.083984375	26489.91015625	39955.25390625	24644.455078125	31071.89453125	34400.67578125	-1877.9635009765625	12518.392578125	32066.107421875	28173.47265625	-7245.953125	11165.4501953125	40791.734375	39509.4765625	41448.1328125	55383.6875	49973.359375	38140.36328125	37692.54296875	38008.3046875	44758.62890625	31528.6796875	42017.1875	45566.36328125	43214.265625	32465.005859375	37097.0234375	45764.98046875	38982.73046875	41434.0546875	39901.48828125	44254.296875	39192.55078125	43330.2734375	43089.921875	38894.94921875	34143.32421875	44714.8046875	42485.91796875	46714.2890625	32862.23046875	35487.0390625	52867.21484375	40080.41796875	43027.97265625	39118.671875	36649.015625	37323.7734375	42839.4453125	48635.44140625	33570.30859375	37678.390625	41091.2109375	32423.09765625	46059.67578125	39730.91015625	38555.30859375	40898.41015625	43423.48046875	39251.66015625	28355.169921875	38891.46484375	40681.0859375	44435.8828125	43471.85546875	42564.4921875	45796.28515625	38771.47265625	43612.5703125	47685.390625	33403.53125	45283.41015625	44792.79296875	48010.98828125	39526.7734375	38142.77734375	58864.78125	40467.23828125	37422.7421875	35963.43359375
1200	1500	18515.41015625	23418.068359375	18634.419921875	29882.01953125	21785.2578125	27539.310546875	28809.20703125	21701.58984375	17783.767578125	29847.064453125	-6297.6591796875	22098.724609375	33599.33984375	14240.6474609375	17831.72265625	23358.943359375	18868.4453125	30432.9453125	26615.513671875	30157.927734375	27652.4765625	20235.205078125	34031.9609375	17506.63671875	30005.974609375	14338.548828125	-2265.584228515625	12607.4912109375	24980.27734375	25840.236328125	-7234.95654296875	10719.009765625	33390.83984375	29432.17578125	31510.697265625	42095.30859375	44171.73046875	32488.73046875	28801.876953125	33090.66015625	37937.75	22910.384765625	35066.6796875	35395.75390625	33889.37109375	25591.630859375	31467.00390625	34314.41796875	32786.29296875	34590.30859375	31354.79296875	37332.984375	29081.099609375	36490.3828125	32697.986328125	31689.619140625	26160.025390625	34664.328125	32842.203125	35518.7421875	25448.662109375	27598.09375	46654.71875	35398.640625	38076.421875	32587.095703125	30422.47265625	31236.298828125	33349.4921875	42041.28515625	30238.951171875	30196.603515625	32524.927734375	27328.76171875	39341.57421875	30612.451171875	33333.19921875	35094.171875	35311.2421875	32736.140625	25865.294921875	36529.69140625	33719.07421875	37841.47265625	35622.375	32577.373046875	36629.13671875	29768.818359375	34561.53125	38068.1875	28912.228515625	35685.32421875	35193.9140625	37449.72265625	33076.01953125	30472.34765625	53480.13671875	31634.021484375	29663.60546875	29558.779296875
1500	1800	18725.470703125	20809.919921875	15355.3876953125	22252.005859375	15821.1181640625	19334.09375	26940.912109375	17493.3203125	14340.7138671875	27066.978515625	-3371.7236328125	13519.302734375	30257.7734375	7781.86376953125	18153.5390625	21602.279296875	15200.677734375	23376.404296875	18388.62890625	22505.44140625	26562.263671875	15741.458984375	27536.943359375	8001.13134765625	27315.345703125	4486.71875	-2219.2333984375	12677.4375	19581.2890625	23424.078125	-5552.5556640625	10186.4765625	27660.623046875	21984.470703125	24647.0	32705.619140625	33830.61328125	28364.076171875	23107.43359375	29217.369140625	34464.515625	17251.052734375	29698.345703125	30745.20703125	28776.923828125	21450.30859375	27848.712890625	27022.11328125	27326.447265625	31153.58203125	24832.71875	29838.8515625	22628.7734375	32088.798828125	25370.525390625	27339.5859375	21932.646484375	27532.490234375	25833.341796875	27398.595703125	21376.423828125	23175.5703125	45300.6796875	28994.1796875	30336.69140625	29194.587890625	27105.609375	29378.6875	26162.08984375	37244.8125	26303.3515625	26356.66015625	25992.552734375	23621.76953125	35142.30859375	24988.490234375	27476.43359375	31073.330078125	28171.99609375	27065.421875	24034.916015625	32306.681640625	29380.052734375	33542.58984375	29279.9921875	26323.095703125	27995.337890625	25547.5	27394.544921875	31103.123046875	23647.966796875	29602.0625	28573.078125	28059.15625	27475.7265625	24326.5078125	48676.66015625	26087.376953125	32497.29296875	25698.35546875
1800	2100	18244.21484375	17842.521484375	13503.81640625	16125.888671875	11844.32421875	14973.9892578125	24511.703125	12671.2275390625	14271.22265625	20717.197265625	2891.47998046875	-1443.9835205078125	25985.005859375	11840.775390625	18943.0625	19552.2265625	12437.173828125	17630.9921875	13100.0625	17640.59765625	23493.556640625	12528.009765625	18745.576171875	-448.26397705078125	23477.6171875	-4473.2431640625	487.1903381347656	12399.24609375	16895.171875	20754.072265625	273.2038879394531	9413.69140625	21699.216796875	26341.205078125	20762.185546875	25264.306640625	24952.8671875	24663.2109375	18872.283203125	26149.814453125	25098.7109375	13641.6845703125	24346.9296875	26135.498046875	23280.556640625	18416.74609375	23259.99609375	20411.37890625	24125.064453125	31504.83203125	21208.58984375	25246.435546875	16525.171875	29208.92578125	19908.587890625	22468.02734375	18756.234375	22387.41015625	19354.244140625	19868.267578125	17047.615234375	19853.775390625	34778.9375	22266.0390625	26988.078125	23537.76171875	23075.5390625	24710.490234375	19778.96875	32602.333984375	18708.8125	21985.80078125	19089.72265625	16104.6162109375	28417.46875	18501.75	21599.966796875	25909.908203125	25129.857421875	21530.185546875	19825.666015625	28152.255859375	26391.7421875	26001.251953125	21153.64453125	18097.349609375	21179.630859375	21771.4609375	20770.12109375	24991.806640625	22778.62890625	20921.623046875	20103.404296875	18601.662109375	22749.943359375	19336.501953125	40277.421875	21752.494140625	30138.376953125	21664.34765625
2100	2400	18085.916015625	16125.41796875	12207.1650390625	14430.1005859375	13829.72265625	13484.6708984375	19055.365234375	11374.7568359375	12929.6005859375	19666.90625	1983.02294921875	-9032.1435546875	20465.8984375	13461.77734375	18306.974609375	17602.82421875	11080.166015625	15934.240234375	11270.9111328125	15556.5126953125	18947.677734375	12061.0078125	14458.60546875	-3866.529296875	20157.337890625	-5302.951171875	674.2301025390625	11659.357421875	13708.05859375	18075.794921875	4173.5498046875	9188.083984375	19401.021484375	23124.462890625	15692.2890625	18279.701171875	14481.5	21604.873046875	15626.646484375	22904.609375	18667.03515625	12546.7109375	20951.421875	22568.61328125	21675.626953125	15292.0771484375	19617.990234375	17279.634765625	20998.97265625	26916.130859375	16086.7900390625	19067.642578125	11688.6064453125	25323.509765625	15131.62890625	20277.099609375	18670.1328125	17606.240234375	16272.36328125	15487.1298828125	15651.318359375	16881.935546875	28131.552734375	19520.4609375	22661.775390625	19794.951171875	19437.8359375	19123.181640625	17763.51953125	28083.85546875	13600.1533203125	19963.99609375	16567.728515625	15706.3564453125	24688.666015625	16906.787109375	19805.275390625	22724.287109375	19660.328125	18197.76171875	13239.3046875	24111.6328125	22261.220703125	23025.595703125	21002.779296875	13798.4765625	16380.6474609375	20054.927734375	17712.07421875	20585.572265625	19753.11328125	18285.326171875	16286.109375	15051.208984375	18832.75	16675.060546875	27995.93359375	16893.69921875	23102.20703125	19690.529296875
2400	2700	17880.5078125	15947.287109375	10699.201171875	12686.705078125	9455.6513671875	12897.6884765625	18797.869140625	10956.630859375	11035.8466796875	17182.625	1372.3687744140625	-7063.5	21414.30859375	9943.71875	17482.814453125	17585.59375	9738.962890625	12933.87890625	9163.2841796875	13594.5908203125	19603.203125	10371.8994140625	15715.984375	-15650.828125	18711.44921875	1377.1181640625	-1439.1602783203125	11624.5087890625	11918.046875	16374.796875	768.1917114257812	9559.5341796875	21515.634765625	15378.58984375	14743.6337890625	22546.826171875	19802.31640625	24684.103515625	15686.1474609375	22930.59375	21844.57421875	11839.55078125	23419.28125	21347.521484375	18625.119140625	14796.060546875	15960.7744140625	16019.310546875	21376.654296875	26528.982421875	14490.6064453125	20198.087890625	12158.826171875	21852.767578125	14119.9306640625	17650.951171875	15005.451171875	17520.029296875	13950.267578125	16921.908203125	11594.3076171875	15744.6484375	37491.30078125	16529.37109375	28632.158203125	20260.96875	17194.794921875	24038.42578125	17318.765625	25655.705078125	12132.2705078125	19990.791015625	18169.19140625	18436.298828125	21502.4296875	17811.25	22374.947265625	21832.302734375	21006.408203125	19547.177734375	13787.67578125	20701.712890625	22051.365234375	29790.7734375	20767.25	16453.62890625	17405.912109375	19376.240234375	16406.205078125	21936.5859375	17892.2421875	18849.95703125	16563.193359375	17531.166015625	18510.82421875	17224.294921875	32864.69140625	13298.10546875	21310.453125	17882.5546875
