frame_start	frame_end	Left-Cerebral-White-Matter	Left-Cerebellum-White-Matter	Left-Cerebellum-Cortex	Left-Thalamus	Left-Caudate	Left-Putamen	Left-Pallidum	Brain-Stem	Left-Hippocampus	Left-Amygdala	CSF	Left-Accumbens-area	Left-VentralDC	Left-choroid-plexus	Right-Cerebral-White-Matter	Right-Cerebellum-White-Matter	Right-Cerebellum-Cortex	Right-Thalamus	Right-Caudate	Right-Putamen	Right-Pallidum	Right-Hippocampus	Right-Amygdala	Right-Accumbens-area	Right-VentralDC	Right-choroid-plexus	AirCavity	Skull	Vermis	Pons	CSF-ExtraCerebral	Head-ExtraCerebral	ctx-lh-bankssts	ctx-lh-caudalanteriorcingulate	ctx-lh-caudalmiddlefrontal	ctx-lh-cuneus	ctx-lh-entorhinal	ctx-lh-fusiform	ctx-lh-inferiorparietal	ctx-lh-inferiortemporal	ctx-lh-isthmuscingulate	ctx-lh-lateraloccipital	ctx-lh-lateralorbitofrontal	ctx-lh-lingual	ctx-lh-medialorbitofrontal	ctx-lh-middletemporal	ctx-lh-parahippocampal	ctx-lh-paracentral	ctx-lh-parsopercularis	ctx-lh-parsorbitalis	ctx-lh-parstriangularis	ctx-lh-pericalcarine	ctx-lh-postcentral	ctx-lh-posteriorcingulate	ctx-lh-precentral	ctx-lh-precuneus	ctx-lh-rostralanteriorcingulate	ctx-lh-rostralmiddlefrontal	ctx-lh-superiorfrontal	ctx-lh-superiorparietal	ctx-lh-superiortemporal	ctx-lh-supramarginal	ctx-lh-frontalpole	ctx-lh-temporalpole	ctx-lh-transversetemporal	ctx-lh-insula	ctx-rh-bankssts	ctx-rh-caudalanteriorcingulate	ctx-rh-caudalmiddlefrontal	ctx-rh-cuneus	ctx-rh-entorhinal	ctx-rh-fusiform	ctx-rh-inferiorparietal	ctx-rh-inferiortemporal	ctx-rh-isthmuscingulate	ctx-rh-lateraloccipital	ctx-rh-lateralorbitofrontal	ctx-rh-lingual	ctx-rh-medialorbitofrontal	ctx-rh-middletemporal	ctx-rh-parahippocampal	ctx-rh-paracentral	ctx-rh-parsopercularis	ctx-rh-parsorbitalis	ctx-rh-parstriangularis	ctx-rh-pericalcarine	ctx-rh-postcentral	ctx-rh-posteriorcingulate	ctx-rh-precentral	ctx-rh-precuneus	ctx-rh-rostralanteriorcingulate	ctx-rh-rostralmiddlefrontal	ctx-rh-superiorfrontal	ctx-rh-superiorparietal	ctx-rh-superiortemporal	ctx-rh-supramarginal	ctx-rh-frontalpole	ctx-rh-temporalpole	ctx-rh-transversetemporal	ctx-rh-insula
0	30	157.48045349121094	175.53207397460938	351.4690246582031	411.7119445800781	429.9927062988281	598.3732299804688	-48.735023498535156	441.4880065917969	404.86187744140625	526.5181274414062	266.21771240234375	343.5805358886719	662.427490234375	365.4649353027344	141.4861602783203	259.0728759765625	364.53460693359375	212.3199005126953	194.23956298828125	298.5957336425781	540.1453857421875	573.9353637695312	448.0381774902344	354.50860595703125	362.7699890136719	-57.27769470214844	-58.58176803588867	434.8377685546875	280.8060302734375	352.3539123535156	17.22964859008789	139.29544067382812	220.9964141845703	934.9209594726562	561.5684814453125	493.5166931152344	1025.1297607421875	359.4133605957031	341.4627990722656	212.05218505859375	311.79010009765625	179.3939971923828	633.2530517578125	494.89239501953125	745.47021484375	333.40509033203125	339.0619201660156	759.1970825195312	600.2550659179688	429.15985107421875	404.335693359375	331.4841003417969	343.5376892089844	70.81916046142578	336.4060363769531	506.7825622558594	993.0291748046875	601.4227905273438	583.9912109375	542.153076171875	652.8406372070312	473.14544677734375	628.844970703125	316.3597717285156	1174.636474609375	913.3721923828125	887.2937622070312	426.42169189453125	394.99810791015625	714.9319458007812	462.2987060546875	353.338134765625	424.8858337402344	528.95703125	878.24755859375	353.9718017578125	744.1484375	654.283935546875	560.6680908203125	396.9386291503906	897.9658813476562	728.8438110351562	567.311767578125	106.34327697753906	583.8944091796875	358.7328186035156	512.8403930664062	930.0911254882812	422.7395324707031	385.1009521484375	1767.740234375	584.9349365234375	633.0787353515625	685.2130126953125	808.1625366210938	445.12762451171875	184.35653686523438	361.1832580566406	2430.434326171875	1383.440673828125
30	60	2058.310791015625	3725.924072265625	7283.78564453125	7351.1513671875	10068.6103515625	10647.701171875	2020.1715087890625	5700.19677734375	6052.83984375	5786.50927734375	2818.526123046875	10230.544921875	5397.54345703125	6611.8935546875	2128.33642578125	3400.37841796875	7216.41748046875	7640.173828125	9164.759765625	10308.23828125	2782.437744140625	7078.57470703125	6151.66162109375	9466.5419921875	6589.998046875	14678.9150390625	825.0328979492188	1475.9776611328125	7945.279296875	5759.6611328125	2465.06982421875	1258.455078125	8873.5185546875	12294.625	12599.734375	14828.1533203125	5802.95556640625	8453.1123046875	9790.26953125	8553.99609375	11710.5888671875	11033.2978515625	11938.0146484375	13376.64453125	13097.849609375	8548.48046875	7468.814453125	11188.44921875	12244.841796875	12752.7685546875	11556.14453125	12740.5732421875	11324.54296875	9970.125	11083.248046875	9675.33203125	11703.6201171875	13138.1875	11610.1513671875	11595.287109375	10025.541015625	9769.005859375	17025.58203125	7633.76025390625	19977.7890625	10707.6298828125	10930.7578125	12798.611328125	10533.3857421875	13134.890625	8133.12109375	7849.36865234375	9542.6376953125	8988.5654296875	12113.8076171875	11780.8203125	11706.384765625	13866.134765625	10676.53125	7602.5849609375	8612.5703125	12157.4150390625	10433.0625	12965.64453125	10849.9140625	13567.3623046875	11940.1533203125	13415.8603515625	9370.1298828125	10004.197265625	13204.892578125	11690.4619140625	11145.5556640625	11873.9814453125	10341.470703125	9875.654296875	17195.3828125	7960.87841796875	22814.271484375	11157.6630859375
60	90	5267.52001953125	9616.4482421875	18109.341796875	17975.29296875	25091.11328125	28086.935546875	9359.7646484375	12813.8857421875	16370.263671875	15729.69140625	5807.255859375	21905.60546875	14521.5	16961.2734375	5021.81494140625	10038.2216796875	17754.9609375	19362.25390625	24389.794921875	26495.568359375	11763.55859375	17783.37890625	13922.22265625	18944.52734375	13722.9189453125	31298.201171875	1941.48876953125	3588.306396484375	21733.328125	14345.82421875	3467.963623046875	3089.54150390625	25153.705078125	28170.98046875	35636.34375	38215.23046875	22932.732421875	20648.373046875	25825.2109375	21883.62890625	27558.416015625	29195.869140625	30795.322265625	34183.51953125	29321.140625	22283.373046875	20643.30078125	27781.009765625	31891.28125	31773.990234375	32629.169921875	43545.03125	32695.927734375	27672.509765625	30114.244140625	28590.0625	28997.345703125	33621.93359375	30054.658203125	32217.376953125	25177.875	26405.611328125	40835.5234375	21565.2890625	51041.95703125	23057.65625	26044.365234375	33425.87890625	28474.81640625	34738.3515625	18649.830078125	21000.794921875	27802.328125	22645.19921875	30806.576171875	33427.23828125	30125.41796875	34933.703125	29228.828125	22663.78125	19584.607421875	31255.08203125	27866.564453125	30722.8359375	29313.796875	42015.58984375	32298.294921875	27778.634765625	27631.029296875	29987.693359375	28034.05078125	32614.025390625	30469.0234375	32654.880859375	25796.962890625	25969.5	38384.48828125	18618.126953125	54827.66015625	24552.576171875
90	120	8404.044921875	15416.4482421875	29386.1484375	28997.62890625	40564.07421875	48261.58203125	15526.111328125	20379.853515625	28217.541015625	25369.912109375	8938.9609375	49233.859375	20233.513671875	28532.244140625	8586.87890625	15291.919921875	29223.052734375	31039.701171875	39719.23828125	42923.2578125	14538.099609375	27256.171875	24451.134765625	35035.55078125	24632.443359375	46600.44921875	2638.235107421875	5833.3818359375	33438.48828125	24475.6171875	3333.64208984375	5034.80615234375	41004.34765625	43693.421875	55500.95703125	61555.4921875	35070.83203125	36015.55859375	42363.8125	37785.23046875	44351.203125	48588.75	48214.609375	56956.2890625	47470.703125	37708.85546875	25122.041015625	47875.875	51618.953125	52660.8984375	52277.30078125	68551.84375	51038.48046875	46270.12109375	49772.85546875	46413.0234375	39576.2421875	56863.48046875	49904.33984375	52094.45703125	39475.37890625	41684.9453125	72866.28125	34580.890625	77932.796875	37860.1484375	41537.93359375	49256.23046875	47203.75	56958.625	28917.455078125	35435.32421875	44913.44140625	37020.0234375	41645.3203125	53998.0078125	49742.00390625	55848.578125	47128.0546875	37856.80078125	29347.7890625	51762.359375	47702.67578125	53451.6484375	51351.5625	63034.703125	50668.62890625	48462.88671875	44143.53515625	49888.74609375	44771.87109375	54871.30078125	50045.859375	55199.48046875	41972.68359375	45240.78515625	61990.7109375	30586.814453125	75047.6484375	35135.38671875
120	150	11571.2978515625	20506.33203125	38859.70703125	38645.734375	53972.30859375	56483.77734375	23253.6640625	26709.8671875	33604.8359375	31318.392578125	10328.673828125	50947.85546875	29162.697265625	20527.83984375	10864.8876953125	18810.4375	39604.78515625	39008.515625	53071.32421875	54923.6640625	23665.4453125	35333.98046875	31498.09765625	41516.09765625	31733.310546875	47500.83203125	3145.28662109375	7561.091796875	39416.4296875	31902.71875	1602.071044921875	6573.146484375	54595.390625	50804.3359375	73147.71875	80033.6328125	53755.5390625	47915.9609375	57184.8046875	50353.06640625	55348.69921875	61812.484375	62816.15234375	65742.3984375	62067.03515625	49664.5234375	38295.8203125	58847.4453125	62802.4453125	65507.85546875	64627.5703125	86924.4375	65374.625	54525.796875	64995.09765625	61306.8359375	51390.6875	72360.0234375	63936.2421875	67447.609375	50607.6875	54630.69140625	83713.7578125	41615.0078125	100402.625	47895.375	50634.8046875	64326.9296875	61405.93359375	73372.4140625	41931.6015625	45096.109375	60000.78515625	50799.3359375	62369.7578125	70575.2578125	63028.4296875	70490.125	58058.58203125	51322.87109375	38242.03125	64487.390625	61276.5625	68089.859375	68909.3046875	83199.359375	66634.2890625	64091.703125	57600.48046875	63964.47265625	53821.80859375	72621.5	64477.28125	73084.1015625	54639.2421875	56196.3203125	82976.3671875	38674.51171875	95946.078125	43925.81640625
150	180	11813.8935546875	20901.060546875	40504.828125	38746.703125	58975.0078125	61436.15625	20754.673828125	28252.712890625	33616.5	36816.00390625	6373.841796875	54065.6328125	30106.37109375	29555.767578125	11120.4775390625	21620.779296875	40783.828125	41648.4921875	57871.5703125	57177.20703125	24260.669921875	36803.328125	30892.455078125	48679.92578125	34599.2109375	50695.75	2468.615234375	7767.37890625	38940.3671875	33200.71875	-844.4683837890625	6768.92626953125	56134.4296875	59916.03125	74129.0078125	79876.6328125	51988.5390625	46388.875	57940.21484375	52414.03515625	54906.09375	66086.8125	65062.1640625	74632.234375	63489.453125	50965.32421875	40884.3125	60103.3125	67659.53125	68024.234375	68735.5390625	89449.5078125	70090.5546875	50644.453125	67281.703125	63585.09765625	52354.75	76044.2578125	67963.875	70613.875	53732.015625	57168.93359375	94456.671875	44455.8515625	101991.796875	45950.27734375	55056.83984375	66208.703125	63389.484375	74048.6875	44465.578125	45917.09765625	64264.3828125	54259.921875	66156.9921875	74714.9609375	64354.51953125	69239.546875	63726.2578125	53608.81640625	42642.34375	71948.7109375	66195.1875	70961.53125	70268.78125	91366.9609375	67393.8984375	62405.7109375	61368.20703125	68925.546875	55009.65234375	76042.59375	67127.09375	77196.3046875	56872.3984375	60005.71875	83515.828125	39749.3359375	100388.9140625	46186.83203125
180	240	12072.3720703125	21183.16796875	39111.0	39440.859375	58415.49609375	59315.62890625	21157.537109375	26039.083984375	32359.826171875	35977.05078125	4302.662109375	54431.39453125	30573.068359375	23324.73046875	11437.7734375	21054.55859375	38954.6328125	41367.54296875	59076.78125	58722.75	24219.4765625	33409.38671875	32926.6484375	44410.67578125	33559.50390625	37429.609375	2550.541748046875	7338.927734375	38868.85546875	30963.974609375	-1360.66845703125	6764.83740234375	54056.0	61762.4765625	70433.2578125	76270.9921875	46896.2265625	48104.296875	58150.24609375	52101.68359375	59461.1015625	62972.48046875	61866.58984375	65302.5625	61745.7421875	50419.26953125	39954.265625	59671.52734375	64510.390625	67841.1484375	66134.609375	87199.03125	67932.140625	54798.90234375	64646.7578125	59184.69140625	49701.37109375	73294.9140625	64652.8984375	69777.8046875	51224.70703125	56224.5625	87851.78125	42772.16015625	90812.0625	45108.43359375	55376.0	59599.7109375	62494.6953125	70614.921875	39318.10546875	47308.70703125	61686.14453125	52251.79296875	56661.98828125	70730.0	61573.390625	67543.4453125	59359.84375	51293.61328125	37470.2421875	62977.7109375	62151.0703125	68047.1796875	67278.359375	85816.1640625	67146.984375	61285.33984375	59722.0078125	65565.0234375	57476.23046875	73600.8203125	64634.26171875	74515.2578125	54139.87890625	59128.78515625	84006.8203125	39517.83203125	81736.671875	45244.4609375
240	300	12137.1044921875	20759.890625	36959.33203125	38471.14453125	54592.77734375	57243.3046875	24968.541015625	25737.7421875	29842.623046875	36284.02734375	4534.01123046875	51070.046875	28246.330078125	13574.666015625	11643.40625	20656.15234375	36598.6484375	39698.3203125	54255.46484375	55711.98828125	22460.8125	31676.3984375	35352.421875	46180.9765625	31726.126953125	32147.9140625	1970.523681640625	7411.70361328125	34421.83203125	29096.166015625	-1753.520751953125	6721.931640625	51280.49609375	49409.1015625	64713.01953125	68221.8515625	46142.0625	46254.421875	55054.19140625	49046.796875	50922.98828125	57249.44140625	56487.01953125	58424.4375	57856.67578125	47397.71875	36652.17578125	56150.98046875	59248.73046875	60574.10546875	62417.95703125	76400.9921875	62645.4453125	52498.953125	59994.66015625	56229.75	47773.35546875	68926.7265625	59579.9921875	65327.765625	48313.40625	51699.73828125	76674.484375	43308.76171875	78657.7890625	44204.55078125	49997.9921875	60279.125	55747.15625	67229.734375	38761.51953125	43978.80859375	58314.9609375	48962.625	54524.921875	64742.16796875	56182.62109375	60460.0546875	57057.33203125	49353.62890625	39272.390625	59346.64453125	58765.26953125	60982.81640625	63584.66015625	78876.1953125	62573.41796875	56088.28125	55101.46484375	60527.1875	55200.93359375	68813.875	59711.36328125	69283.3203125	50924.6171875	55356.4609375	75328.7890625	39319.16796875	68057.3046875	41056.75390625
300	360	12341.5537109375	20015.833984375	34250.8671875	35288.56640625	50656.96484375	50504.59765625	25312.6640625	24511.251953125	25772.26953125	34021.765625	2906.24951171875	47402.50390625	28906.228515625	12122.7177734375	11782.1025390625	18734.12109375	33860.6796875	37887.8359375	50842.8984375	51311.18359375	24120.466796875	29634.19140625	31242.138671875	36122.83984375	30680.943359375	24226.30859375	1088.30419921875	7298.5732421875	30093.75	28424.712890625	-2016.2987060546875	6859.9365234375	46284.6171875	50731.62109375	58310.1171875	63469.375	45017.72265625	42576.1171875	49452.28515625	45956.890625	47954.015625	51610.7578125	50631.04296875	53642.69140625	51199.80859375	43774.19921875	38355.125	53057.66796875	54356.97265625	54710.109375	55665.265625	66237.1171875	56348.80859375	46332.96484375	54036.14453125	50610.34375	43789.7578125	61547.20703125	54076.125	59493.51171875	43938.75	47180.41015625	69216.1796875	39327.68359375	72546.890625	39879.94921875	44126.30859375	49493.19921875	50302.69921875	57439.046875	35601.328125	40941.1171875	53892.1015625	44794.453125	51254.12109375	59130.3125	51772.59375	55314.765625	51753.65625	46209.98046875	31951.884765625	54580.8203125	51638.88671875	58068.703125	58404.38671875	68587.6015625	56072.390625	50842.390625	49603.0859375	55899.77734375	48886.33984375	62590.92578125	54619.74609375	63730.81640625	46727.90625	49530.421875	67488.8671875	37491.59765625	62376.421875	39102.95703125
360	480	12133.712890625	18634.849609375	30013.705078125	33238.015625	43547.48046875	45010.03515625	21612.3984375	22530.458984375	23037.041015625	33332.19921875	905.3198852539062	39079.98828125	26515.619140625	7901.34130859375	11562.3408203125	18068.740234375	29787.67578125	34453.74609375	41490.74609375	43152.46484375	23315.783203125	24907.947265625	30768.46875	37143.8671875	28321.3984375	16183.56640625	1075.605224609375	7006.79541015625	28591.291015625	24750.474609375	-1729.1241455078125	6850.25048828125	38835.41796875	40969.0390625	50802.58203125	52194.5234375	42994.75390625	36234.46875	42572.9921875	40911.0546875	39730.29296875	43767.65625	43431.625	43484.01953125	44809.36328125	37822.62890625	32980.21875	43330.078125	45855.03515625	43021.36328125	47652.3359375	54661.04296875	47902.0390625	37816.38671875	45932.44140625	43630.78125	38549.4375	52533.6640625	46833.6796875	50017.97265625	38611.99609375	41435.890625	55111.61328125	36623.796875	55557.1328125	36368.9140625	38281.24609375	43833.87890625	44436.33203125	49024.9921875	34288.81640625	34530.8671875	46315.1171875	41560.421875	41781.75390625	49750.83984375	44652.21875	45967.953125	44967.2734375	39845.1171875	31840.017578125	46221.44921875	43626.5390625	46930.86328125	49094.04296875	54009.38671875	47728.01953125	45482.3984375	42629.109375	46730.234375	41369.37890625	53308.4921875	47046.140625	54292.3125	40555.37890625	42511.328125	57112.3828125	34011.1015625	51224.76171875	33634.1484375
480	600	12018.353515625	17641.134765625	24585.607421875	28304.634765625	36135.75	36729.21484375	23383.625	20817.7578125	21024.36328125	30451.291015625	-247.2769775390625	37302.25390625	23399.794921875	6063.15283203125	11695.916015625	17412.248046875	24682.154296875	30346.8046875	34665.9375	34652.8515625	23371.466796875	21960.599609375	28286.21484375	37804.3359375	26111.015625	16772.861328125	715.4078369140625	6757.79736328125	22298.412109375	22070.91796875	-1155.813720703125	6804.5234375	32562.63671875	33898.13671875	40192.23828125	43126.48828125	37112.4375	31080.552734375	35210.62109375	34512.30859375	33058.6328125	34692.28125	35780.07421875	35285.73828125	38046.7890625	31785.181640625	27995.4375	35828.125	35837.109375	36894.40625	38458.70703125	42622.08984375	38937.9140625	33035.125	36811.0703125	35478.9375	33678.6640625	42093.22265625	38186.4609375	40156.99609375	32812.9921875	33573.26953125	47786.5	31601.765625	42523.96484375	32470.390625	29821.22265625	36669.15625	36643.82421875	41176.31640625	26631.095703125	29896.25390625	38241.203125	34629.58203125	34218.640625	39588.96875	36524.4296875	35648.11328125	37250.14453125	32531.099609375	27332.966796875	36888.5390625	36134.91015625	36337.0859375	38314.828125	42871.40234375	38861.40625	33918.34765625	34124.13671875	36780.1875	33908.00390625	43101.20703125	38122.04296875	43136.6015625	33448.2890625	35574.3671875	46349.3046875	29145.1796875	37048.8984375	29340.533203125
600	900	11682.20703125	15711.966796875	18398.21875	23474.296875	25726.01953125	26034.962890625	21561.89453125	16636.0390625	15526.9892578125	23920.763671875	-260.1840515136719	26148.9609375	20661.052734375	6117.8310546875	11487.857421875	15761.30078125	18559.58203125	23800.505859375	24939.736328125	25360.548828125	22453.77734375	16834.8046875	23367.220703125	25159.50390625	21138.90625	9791.1298828125	376.260009765625	6465.09521484375	16256.0185546875	18533.478515625	-691.2266845703125	6636.724609375	23905.607421875	25562.341796875	29993.521484375	28751.341796875	27285.60546875	25109.083984375	25999.3984375	26140.421875	23591.53515625	24676.248046875	26463.7578125	24885.71875	27978.701171875	23906.4296875	22717.583984375	26525.16015625	26593.927734375	27462.548828125	28263.337890625	28625.109375	27961.77734375	22677.44921875	26668.326171875	26944.240234375	25465.1484375	30599.640625	27675.001953125	30128.173828125	24381.619140625	24512.736328125	30161.35546875	25554.734375	30170.205078125	25042.65234375	23812.595703125	27092.994140625	25976.08203125	28707.28515625	22948.099609375	22680.845703125	28138.1328125	26234.421875	25034.08984375	28695.3984375	26086.57421875	25863.6484375	28573.5625	24155.224609375	20944.421875	26007.64453125	25972.44140625	28617.1875	29133.970703125	29474.890625	27315.71484375	25455.36328125	25016.546875	27412.697265625	26956.92578125	31660.08203125	27732.7890625	31837.35546875	25254.076171875	26148.98828125	31328.0703125	24144.54296875	26547.21875	23856.841796875
900	1200	11405.955078125	14081.16015625	12855.17578125	17962.263671875	16395.52734375	18105.12890625	17857.279296875	13839.236328125	11552.912109375	18887.349609375	-943.7109375	13600.0712890625	17214.142578125	7761.05224609375	11230.759765625	14342.38671875	13052.3056640625	17844.07421875	17264.375	16443.673828125	19377.162109375	12346.2705078125	18985.462890625	16326.48046875	17359.689453125	9239.45703125	-36.55527877807617	6249.4951171875	11692.220703125	14816.8134765625	-232.505615234375	6621.3857421875	17368.611328125	18066.0390625	20985.4296875	21687.359375	20772.064453125	18517.1171875	18979.96875	19349.75	17903.376953125	17509.728515625	19258.984375	18344.490234375	20704.01171875	17726.9140625	16555.80078125	18566.380859375	19445.05078125	19383.154296875	19963.47265625	18328.751953125	19357.5234375	16935.236328125	19010.35546875	19153.1875	18010.712890625	21632.810546875	19900.71484375	21371.634765625	17985.392578125	17866.85546875	21562.087890625	20370.01953125	22164.404296875	18751.96484375	16044.9091796875	19817.208984375	18493.41796875	20410.138671875	15694.74609375	17647.140625	20622.41796875	19701.892578125	18729.423828125	20825.396484375	18835.140625	18198.421875	20804.154296875	18055.462890625	15544.9267578125	17928.09375	19302.4609375	21164.00390625	21107.1015625	19961.853515625	19993.23828125	18049.94140625	17760.228515625	19997.484375	19521.166015625	22981.89453125	19915.68359375	23550.67578125	18854.916015625	18871.548828125	21879.568359375	17805.130859375	17922.73046875	17860.4140625
1200	1500	11239.580078125	13005.283203125	10136.4013671875	14592.1474609375	12411.8828125	13679.625	17197.22265625	11655.529296875	8991.1357421875	16298.6103515625	-856.31103515625	7510.0185546875	14587.0029296875	9876.30859375	10938.5947265625	13404.185546875	10375.068359375	15004.158203125	12893.8115234375	12957.310546875	17322.125	9810.2373046875	14520.5947265625	11674.513671875	15089.26953125	8764.43359375	-288.2070007324219	6325.2666015625	9281.2138671875	13483.9716796875	41.389747619628906	6726.56005859375	15502.9765625	15858.1044921875	17219.076171875	17328.19921875	17781.05078125	16103.1181640625	15846.875	16752.001953125	15460.48828125	15495.4013671875	15800.6474609375	15923.2041015625	17365.486328125	14465.16796875	14850.6123046875	15454.2021484375	16316.017578125	16453.390625	16386.23828125	15260.2529296875	16593.56640625	14276.17578125	15804.9716796875	15835.400390625	14709.216796875	18011.427734375	16571.337890625	18120.404296875	14722.451171875	15113.724609375	16737.9609375	16668.509765625	18152.509765625	16734.01953125	14664.1962890625	16307.30078125	16305.0654296875	17377.388671875	13822.7109375	15069.40234375	17591.0390625	16874.087890625	16317.0537109375	17687.15234375	16360.888671875	16259.2783203125	17746.263671875	15062.591796875	14196.158203125	15486.375	16220.3408203125	18116.140625	18627.28125	16799.36328125	16974.48046875	16017.150390625	14985.046875	16507.81640625	15402.2890625	19205.33203125	16495.55078125	19418.53515625	15722.1376953125	15616.1396484375	18107.447265625	15202.087890625	15489.587890625	15878.388671875
1500	1800	10988.7958984375	12525.98046875	8685.962890625	12761.6484375	10765.482421875	11633.9501953125	14514.7060546875	10544.6044921875	7808.138671875	14133.3818359375	-753.7491455078125	6300.85205078125	13581.7998046875	3701.49462890625	10652.8564453125	12320.8232421875	8901.1455078125	12405.9150390625	11212.6484375	10841.94921875	15110.2236328125	8903.8935546875	12804.7216796875	4964.646484375	13346.1181640625	6175.62060546875	-514.667724609375	6262.61474609375	7823.2900390625	12513.552734375	122.69139862060547	6893.81884765625	14005.1650390625	14488.4326171875	16039.4404296875	15920.7138671875	14540.0263671875	14734.3759765625	14639.576171875	15615.0283203125	13967.9326171875	13843.189453125	14268.9638671875	15222.0068359375	15085.2294921875	13143.3701171875	12944.3740234375	13159.6103515625	14975.7578125	14535.748046875	15119.328125	14739.837890625	15129.0439453125	13416.41015625	14548.3544921875	15156.08984375	13616.396484375	16298.7470703125	15394.30078125	16560.123046875	13697.0361328125	14031.2880859375	15106.6806640625	15130.7080078125	16904.181640625	14579.8642578125	13720.4248046875	14445.4814453125	15199.3857421875	15637.7958984375	11286.3388671875	14198.470703125	16094.2236328125	15979.70703125	15031.95703125	17005.619140625	14699.5712890625	15187.3076171875	16462.30078125	14186.0947265625	11111.0908203125	13406.16796875	15912.1943359375	16975.79296875	16483.783203125	15250.6748046875	15330.927734375	15010.23828125	13572.5458984375	15654.548828125	13519.5107421875	18234.568359375	14872.11328125	17853.20703125	14534.0078125	14953.9453125	14750.83984375	13484.033203125	14840.4921875	13948.349609375
1800	2100	10765.8974609375	11612.2099609375	7559.24609375	11051.392578125	10134.4365234375	10799.8076171875	13012.5107421875	9152.5908203125	6695.1455078125	11566.599609375	-637.97412109375	1378.88818359375	11951.4794921875	7871.92333984375	10469.3505859375	11528.2587890625	7711.9853515625	11291.46875	10005.2998046875	9912.2763671875	13170.11328125	7625.31787109375	10900.9951171875	1882.1451416015625	12001.099609375	5734.19189453125	-751.1712036132812	6458.85693359375	6885.44873046875	11372.490234375	152.83465576171875	7103.69189453125	13001.0654296875	11341.984375	14598.7978515625	14463.203125	12587.63671875	14018.431640625	13381.8857421875	14251.1005859375	13503.68359375	12836.669921875	13651.509765625	14020.333984375	14483.0908203125	12165.50390625	12646.0078125	13635.1953125	14653.87890625	13669.3154296875	14525.73828125	13881.9638671875	13885.890625	12869.7451171875	13241.7021484375	13706.75	12051.646484375	15077.8369140625	13883.734375	14581.9404296875	12569.091796875	13060.453125	12521.560546875	13254.1220703125	16108.2607421875	13218.078125	12769.5888671875	14069.17578125	13789.3701171875	14423.0654296875	9474.955078125	12869.7626953125	14566.375	14243.27734375	13874.259765625	15409.7255859375	13490.5595703125	14837.5302734375	15066.58984375	13086.623046875	12642.8447265625	11900.49609375	13606.353515625	14160.8466796875	15867.5068359375	14500.703125	13448.0478515625	12952.3271484375	12703.724609375	14839.2783203125	13497.6796875	16394.087890625	14270.189453125	16627.833984375	13151.2451171875	13988.8583984375	13978.951171875	12597.0078125	18082.611328125	12294.4873046875
2100	2400	10377.462890625	11411.35546875	6523.6884765625	10172.7724609375	7728.3447265625	8937.8701171875	12677.03125	8287.2412109375	6853.89990234375	10398.923828125	-306.6543884277344	2401.0693359375	10958.0595703125	6426.7939453125	9988.439453125	11459.025390625	6929.15966796875	9798.9140625	9095.443359375	8683.7294921875	11502.9638671875	8007.99853515625	9728.4833984375	2248.145263671875	10321.6064453125	7500.6123046875	-1277.2916259765625	7324.87744140625	6401.060546875	10389.716796875	-368.9701843261719	7170.41650390625	12348.8330078125	13801.484375	14351.560546875	16410.294921875	12880.029296875	13744.7431640625	13035.7646484375	13734.91796875	14401.1435546875	11406.57421875	13027.2919921875	14082.427734375	12409.224609375	11150.7314453125	11317.0478515625	10683.544921875	14333.5166015625	11858.1005859375	13122.5615234375	14557.12890625	14124.1318359375	11986.919921875	12199.8505859375	12801.5302734375	12008.27734375	14619.2109375	13105.103515625	14714.033203125	11778.9755859375	12470.060546875	12051.615234375	12693.19921875	17935.662109375	13774.693359375	10815.677734375	12884.1591796875	14662.4384765625	13510.865234375	7077.216796875	11252.7568359375	14415.9296875	12475.7099609375	12444.3798828125	14600.5244140625	11503.8642578125	14383.677734375	14551.6396484375	11771.220703125	10961.8232421875	13024.9326171875	14388.2080078125	11940.3134765625	14142.84765625	14561.3525390625	14681.61328125	11070.2236328125	12579.7529296875	13880.2822265625	12163.181640625	16201.3154296875	13768.91796875	15860.8447265625	13664.2998046875	13157.287109375	11796.134765625	12416.763671875	17683.712890625	11605.4990234375
2400	2700	10075.9853515625	10456.94140625	6149.5205078125	9111.6337890625	7459.9443359375	9062.2060546875	11091.1630859375	7538.80224609375	6162.18115234375	9177.43359375	-474.8008117675781	-3623.454833984375	10528.4267578125	5385.55712890625	9815.708984375	10484.138671875	6353.07421875	9259.080078125	7983.76123046875	8629.0283203125	10919.505859375	6371.91064453125	9153.7470703125	-1054.57080078125	9937.201171875	11201.5888671875	-1220.183837890625	7077.96923828125	6898.0966796875	9463.8173828125	-53.15291213989258	7370.14306640625	11917.5498046875	11615.8330078125	13830.9423828125	13456.4287109375	11732.7412109375	13246.857421875	12820.44921875	12772.642578125	11652.8447265625	11557.2080078125	11650.9501953125	13440.1748046875	12102.5244140625	11012.9853515625	11452.435546875	10661.2421875	12884.892578125	11441.3876953125	13567.1650390625	13211.076171875	13348.3701171875	11366.6259765625	11715.7724609375	12744.595703125	10503.8544921875	13205.078125	12408.5517578125	13862.2919921875	11250.0419921875	12014.966796875	10572.3544921875	11429.48828125	15203.3046875	12194.794921875	12308.9853515625	10488.1826171875	12112.548828125	13187.859375	6935.32568359375	11846.416015625	13139.3515625	12792.3779296875	11375.7685546875	13914.8935546875	11352.451171875	14042.3330078125	13963.4560546875	11100.7109375	11771.7216796875	10930.970703125	13172.9619140625	11335.4111328125	14100.9169921875	14600.416015625	12800.576171875	11070.84375	11673.849609375	13126.3369140625	12582.4833984375	15056.654296875	12801.46484375	15394.5732421875	12651.765625	12207.8056640625	11603.9453125	11781.8671875	12340.6123046875	10760.6875
