frame_start	frame_end	parasubiculum	HATA	fimbria	hippocampal_fissure	HP_tail	presubiculum-head	presubiculum-body	subiculum-head	subiculum-body	CA1-head	CA1-body	CA3-head	CA3-body	CA4-head	CA4-body	GC-ML-DG-head	GC-ML-DG-body	molecular_layer_HP-head	molecular_layer_HP-body	Lateral-nucleus	Basal-nucleus	Central-nucleus	Medial-nucleus	Cortical-nucleus	Accessory-Basal-nucleus	Corticoamygdaloid-transitio	Anterior-amygdaloid-area-AAA	Paralaminar-nucleus
0	30	863.97225	372.92118	157.82163	374.17606	440.85285	537.3129	355.76951	171.65614	202.72138	191.02135	141.76588	247.39908	135.10056	319.19111	185.4004	324.03087	177.60116	221.17317	206.49136	194.78907	153.06459	352.60294	202.28986	232.51136	204.1233	189.45059	484.2955	186.28113
30	60	6594.82016	8593.21572	6264.17603	5510.30357	7405.24451	6101.48109	5518.40757	4273.32323	5979.37103	5601.55657	5253.47067	8106.43121	5635.1299	4918.53297	5736.88719	5267.08892	5842.59367	5351.17239	5644.3512	4384.14667	6422.31037	6581.82418	5115.32637	5175.43836	6627.33928	5930.44171	7740.23124	5897.30568
60	90	13655.32389	20594.91768	19446.34545	14861.31593	18645.81996	13365.17495	16469.87232	13240.78257	18239.27005	14036.40722	15832.91746	18559.39152	16930.8443	13950.35843	17657.96175	14235.51871	17860.22062	13543.00529	17315.82119	12664.68882	17338.64268	15683.46515	13226.03066	14291.80751	18988.55331	16975.66354	19789.29771	14873.63858
90	120	23596.22927	29521.10593	30428.32688	26575.59959	31412.65964	24662.41238	26709.34879	25689.20165	27645.67865	27015.10289	23685.05755	31762.32075	26790.90072	27921.88215	26739.75285	28465.83711	28195.39129	26600.28255	26294.90333	22373.0716	29103.43015	31231.32673	25144.64453	26252.47492	30320.67197	25584.57444	26638.12821	27849.14598
120	150	25535.19897	31035.99048	35100.75757	31584.61232	38055.14945	31311.45249	30044.36247	34717.96708	36582.108	31990.55599	37192.2399	36375.40533	36026.28092	33576.38855	34969.22161	33250.24314	34649.21759	34446.80792	34585.03014	34053.66848	31658.43887	35863.76786	30693.85703	30426.82401	33941.79069	29654.57782	37271.51004	30453.2878
150	180	27371.75175	33586.72415	41800.38725	35171.43669	41065.83745	34940.35534	35710.71865	37057.95318	42362.61911	33613.2585	40240.48812	37355.50393	40736.34831	36344.89952	42100.06432	35460.30572	41648.03368	36434.42416	40506.13643	33747.24497	36888.30253	35472.84202	30023.30469	30004.10896	35296.16993	31673.59285	36536.30727	37264.80015
180	240	27434.50135	28480.13556	42211.18671	34525.16299	36710.07038	33948.15712	32558.16847	37759.4159	40505.39483	32630.65864	39482.81005	35036.80792	39453.29741	34149.03634	40371.73177	34068.82258	41002.57034	34957.89089	38922.83766	36275.89225	33030.3753	34876.11964	30352.70156	29788.46063	31989.11136	27927.31595	32487.69434	31909.44853
240	300	24786.12435	24753.32812	36495.314	31758.34061	33185.22507	32102.68767	31446.22664	35109.21522	37759.18444	28991.03089	33543.04989	30005.79642	34384.32005	32243.89118	36509.88553	31439.78997	36347.65564	31942.87553	35106.35877	34006.73991	31972.6024	32353.13292	27464.35781	27032.65995	30574.41927	27137.78718	33071.14474	30798.24086
300	360	25246.12565	24530.3263	31911.24736	29221.81316	32968.12409	31818.69205	29710.96106	34955.11727	35174.62734	27392.63533	32290.60401	29330.53291	30391.0156	29654.81576	33243.59051	28743.94617	32727.07115	30793.94385	32239.71703	35801.32333	31636.8697	29912.9745	27618.91445	26327.76562	28784.80184	26767.34295	37124.06124	32231.83858
360	480	25573.26512	22414.5748	29845.17863	28515.77337	28452.79272	31893.5002	28427.87426	34234.02307	33585.66753	25860.86934	28809.56422	24891.6046	27424.44167	28592.60885	29740.26469	28189.47043	30047.75858	29080.19935	29826.88442	30708.15838	29211.59621	29348.24727	27129.34687	27010.83162	27933.88046	26233.66095	34733.1829	26201.05343
480	600	21088.28821	21596.00902	27347.18022	25436.27763	26750.9875	26612.06236	26249.75192	30683.7306	31363.20064	24640.57735	26176.72491	23911.77657	25521.43152	25317.92848	27954.21955	25005.04784	28193.05383	26948.55272	27815.00288	29497.713	28155.82027	30010.91373	27352.42969	26777.41139	27163.68785	24763.62916	32612.70864	27145.42055
600	900	18524.4823	21197.74003	22815.4905	21736.62935	20609.96683	22672.14551	21598.50945	25552.90763	25014.0207	20779.14381	21765.14964	20330.5522	21102.24026	21269.15298	23147.43309	21273.60714	23460.07117	22293.5412	22971.54253	24849.22722	23420.63004	25559.49805	25028.075	25258.29852	24343.17242	23540.38846	26856.81417	20871.51367
900	1200	14939.58584	17990.42144	17735.18939	16965.22239	17364.13851	17392.26949	17055.89773	19760.23053	18571.8281	17244.43064	16965.42422	17651.70199	16855.764	17526.14091	17210.54767	17549.46684	17654.769	18022.4091	17451.60187	20947.65552	19099.8575	22266.59827	23149.15391	22962.96012	20626.31699	19709.73537	20905.18764	17618.33698
1200	1500	12047.19524	16830.62521	14763.15145	13573.06581	14530.75656	12802.45361	14875.07797	14476.70928	15110.12056	14189.51909	13610.91232	14323.56213	14400.92864	13687.19938	14293.61329	13850.61388	14712.10277	13935.42618	14575.16928	17715.00018	15576.74702	18445.87924	20056.59102	19737.54698	17345.3655	17493.51516	17965.94884	14761.57268
1500	1800	10974.44281	15036.5086	13653.30555	12258.43376	12917.48594	12271.57916	12736.64399	13972.58626	13377.40448	12778.65163	12502.98591	12688.67529	13445.64836	11739.05642	12993.21841	12105.51249	13248.90562	12731.93455	12935.92118	14979.32772	13621.23602	16909.05993	17520.4	17064.217	15595.34062	15493.50989	14673.5203	12410.21951
1800	2100	9688.68287	14063.20537	12028.45704	11638.11004	11879.30572	10790.79021	11462.4158	11596.92227	12270.46192	12371.09108	12374.05154	12945.95577	12002.80506	12133.74684	11951.91435	12130.80774	12003.27334	12085.17175	11977.56703	13058.17414	11747.52537	13637.35301	14991.36309	14854.1195	13622.00598	13365.40586	11291.12367	11570.79861
2100	2400	8714.38959	11726.09082	11309.60403	9583.42505	11268.35861	9555.20514	10426.18984	10367.80074	11629.2351	9949.31558	10419.9876	9954.15497	10756.44707	9329.74685	10342.66872	9578.84237	10738.34214	9816.52678	10546.94247	12209.67797	11007.48392	12911.80452	13789.34434	13319.91936	12088.76445	11784.41055	13353.11534	9951.56849
2400	2700	7832.82973	11589.14545	10510.67995	9121.9637	10337.41189	8172.20579	9994.88011	9103.34571	10418.41099	9665.20378	9600.99336	10772.20004	10471.82369	9208.83547	9596.71743	9260.2656	9976.13221	9100.01584	9946.38073	11332.40839	9903.02749	12654.80215	13456.03848	12886.91632	11900.86607	11905.70221	10980.84567	8433.85372
2700	3000	7323.43417	10226.10514	10178.04643	8093.63198	11083.18027	7369.21124	8110.90831	8476.14788	9374.76496	8848.37	9491.2052	9803.94148	10181.2689	8563.28697	9377.28638	8755.13547	9501.48485	8604.27944	9150.85793	11170.39612	9258.32909	11696.81908	10487.25312	10204.67085	10011.00233	10152.36555	11970.33705	7914.98656
3000	3300	6692.82587	9886.41159	9909.86567	7571.73642	10473.1706	6796.98043	8291.034	6979.35497	8955.93513	7969.28806	8894.45801	9266.05599	10463.91462	7712.84549	9177.17535	7924.65493	9196.4594	7376.56816	8974.23298	10339.62272	8839.35563	8998.86423	10256.86504	9293.24144	8911.06136	9635.41688	10722.45176	6961.77426
3300	3600	6920.25841	8806.45122	9925.66538	7684.0773	9077.99558	6790.0222	7688.41021	7456.45916	8187.80491	8014.16522	8256.55473	9471.67664	10367.14949	7266.94956	9131.18493	7531.04531	9096.65471	7616.28694	8592.54687	10757.04916	8243.69895	9840.56398	9319.0666	9219.79477	8631.45207	8248.2971	9627.03122	7196.99534
3600	3900	6274.37735	7442.00872	8045.09614	7321.75453	8672.94696	6224.69156	7615.4351	7873.92265	8902.21618	7704.48897	9034.54293	7611.21018	8370.42338	7258.27689	8178.49934	7425.84301	8139.62941	7284.83953	8190.53957	8766.42503	7661.45338	7824.63556	8286.78359	8159.47852	7804.78116	8230.75512	9900.75837	6618.31207
3900	4200	6321.36477	8887.55623	8152.04531	7091.14898	8838.08677	6250.0655	7329.19271	6588.79818	8455.18536	7237.35432	8084.81844	7634.39144	8838.67172	6410.27075	8092.74393	6565.35117	8077.7038	6890.20655	8051.55724	7665.58555	6815.36599	9966.39849	9627.79141	10322.61719	9960.20477	8454.10771	9294.54848	5188.30791
4200	4500	5633.98462	9349.70469	7810.46786	6697.81301	7338.1002	6085.9288	6583.73174	6743.00747	6466.64278	7467.17564	6922.82422	9478.00524	8049.60439	7099.8458	6908.14082	7409.4878	6922.32405	6966.84833	6843.10468	6935.62204	6706.34296	8953.36157	7507.09531	7526.89232	7372.80712	7735.11094	8835.80831	5038.0799
4500	4800	5122.06464	7297.03559	7469.65324	6005.82698	7297.03075	5611.10228	6240.66775	6297.89453	7142.55754	6446.67314	7622.81469	6921.97336	7793.2153	5858.67437	7285.5193	5986.32493	7392.86163	6200.06904	7194.37536	7117.09228	5880.83522	6493.55193	6839.77002	6991.35444	5923.0267	6303.31755	6824.65815	6542.78043
4800	5100	4725.51126	5840.10468	7739.65407	6972.64947	7895.80421	5220.83309	6770.58949	7085.94903	7836.90628	6854.50188	7371.44801	8060.01604	7460.05892	7644.63591	6952.89186	7586.73852	7368.35237	7031.75777	7355.33441	8327.46734	6673.25361	8461.52959	7804.02539	7457.78092	7035.01099	6602.11124	8292.03486	4637.45676
5100	5400	4986.81884	6946.53198	5948.23749	5490.84987	6940.29929	5547.373	6280.16473	6025.65073	6067.50273	5818.9714	5055.1154	6520.48377	5849.38762	5046.30792	4724.87344	5375.80331	5174.76106	5832.15506	5229.85345	6737.48355	5376.84877	8866.66964	7713.43584	7763.69241	7135.63765	6353.1021	7551.34865	4462.7311
