frame_start	frame_end	Left-Cerebral-White-Matter	Left-Cerebellum-White-Matter	Left-Cerebellum-Cortex	Left-Thalamus	Left-Caudate	Left-Putamen	Left-Pallidum	Brain-Stem	Left-Hippocampus	Left-Amygdala	CSF	Left-Accumbens-area	Left-VentralDC	Left-choroid-plexus	Right-Cerebral-White-Matter	Right-Cerebellum-White-Matter	Right-Cerebellum-Cortex	Right-Thalamus	Right-Caudate	Right-Putamen	Right-Pallidum	Right-Hippocampus	Right-Amygdala	Right-Accumbens-area	Right-VentralDC	Right-choroid-plexus	AirCavity	Skull	Vermis	Pons	CSF-ExtraCerebral	Head-ExtraCerebral	ctx-lh-bankssts	ctx-lh-caudalanteriorcingulate	ctx-lh-caudalmiddlefrontal	ctx-lh-cuneus	ctx-lh-entorhinal	ctx-lh-fusiform	ctx-lh-inferiorparietal	ctx-lh-inferiortemporal	ctx-lh-isthmuscingulate	ctx-lh-lateraloccipital	ctx-lh-lateralorbitofrontal	ctx-lh-lingual	ctx-lh-medialorbitofrontal	ctx-lh-middletemporal	ctx-lh-parahippocampal	ctx-lh-paracentral	ctx-lh-parsopercularis	ctx-lh-parsorbitalis	ctx-lh-parstriangularis	ctx-lh-pericalcarine	ctx-lh-postcentral	ctx-lh-posteriorcingulate	ctx-lh-precentral	ctx-lh-precuneus	ctx-lh-rostralanteriorcingulate	ctx-lh-rostralmiddlefrontal	ctx-lh-superiorfrontal	ctx-lh-superiorparietal	ctx-lh-superiortemporal	ctx-lh-supramarginal	ctx-lh-frontalpole	ctx-lh-temporalpole	ctx-lh-transversetemporal	ctx-lh-insula	ctx-rh-bankssts	ctx-rh-caudalanteriorcingulate	ctx-rh-caudalmiddlefrontal	ctx-rh-cuneus	ctx-rh-entorhinal	ctx-rh-fusiform	ctx-rh-inferiorparietal	ctx-rh-inferiortemporal	ctx-rh-isthmuscingulate	ctx-rh-lateraloccipital	ctx-rh-lateralorbitofrontal	ctx-rh-lingual	ctx-rh-medialorbitofrontal	ctx-rh-middletemporal	ctx-rh-parahippocampal	ctx-rh-paracentral	ctx-rh-parsopercularis	ctx-rh-parsorbitalis	ctx-rh-parstriangularis	ctx-rh-pericalcarine	ctx-rh-postcentral	ctx-rh-posteriorcingulate	ctx-rh-precentral	ctx-rh-precuneus	ctx-rh-rostralanteriorcingulate	ctx-rh-rostralmiddlefrontal	ctx-rh-superiorfrontal	ctx-rh-superiorparietal	ctx-rh-superiortemporal	ctx-rh-supramarginal	ctx-rh-frontalpole	ctx-rh-temporalpole	ctx-rh-transversetemporal	ctx-rh-insula
0	30	118.66386413574219	147.0283203125	113.1579360961914	290.220458984375	237.885986328125	351.2985534667969	197.0572509765625	475.30908203125	707.1300659179688	629.475830078125	-223.40628051757812	-703.9544067382812	327.4171142578125	2944.884765625	137.96392822265625	237.18092346191406	181.43527221679688	293.7844543457031	38.22688674926758	83.564453125	285.9389953613281	313.7290344238281	67.7230224609375	-10.426765441894531	580.6260986328125	2423.376953125	-4.077939033508301	245.78335571289062	-68.18436431884766	118.07684326171875	177.76817321777344	23.673246383666992	-195.75869750976562	2169.65673828125	332.0910949707031	332.7562255859375	1408.0792236328125	414.23541259765625	366.5845031738281	228.17282104492188	889.8378295898438	42.09809875488281	327.22882080078125	300.7898864746094	1246.675537109375	192.837646484375	-412.41455078125	503.9296875	386.1048583984375	1018.20849609375	520.4156494140625	433.330078125	580.3594360351562	-166.28260803222656	444.8148193359375	487.4937744140625	942.6774291992188	427.2490234375	468.9734191894531	252.73805236816406	728.81201171875	341.3039855957031	270.3509521484375	1414.4871826171875	277.2146301269531	829.066162109375	115.9264144897461	580.6915283203125	405.0343933105469	378.74395751953125	859.5670776367188	288.15264892578125	271.9512939453125	313.1725158691406	1063.194580078125	17.683181762695312	599.6215209960938	355.4100646972656	-53.186885833740234	115.2424087524414	237.25833129882812	755.37158203125	305.810302734375	1182.7840576171875	306.58001708984375	446.91741943359375	581.1878662109375	312.8654479980469	462.7774963378906	475.5865478515625	961.6004028320312	353.9044189453125	408.8002624511719	10.119864463806152	688.218994140625	267.2552185058594	486.8694763183594	1041.6025390625	118.29017639160156	581.3968505859375
30	60	2255.365234375	7050.0625	4855.119140625	9332.0947265625	7493.86279296875	11725.8486328125	2537.27978515625	5193.9501953125	9559.630859375	4451.53662109375	4558.59326171875	-6146.173828125	8100.89453125	26446.576171875	2878.358642578125	5506.5556640625	6055.08984375	8512.3076171875	6566.86767578125	9888.96875	1621.8807373046875	6338.107421875	6943.9990234375	10493.8115234375	8693.60546875	14856.44140625	417.6125793457031	3479.33837890625	8480.77734375	6460.91162109375	852.3518676757812	1348.3638916015625	6833.01513671875	24326.150390625	13750.314453125	14311.7353515625	13445.4326171875	11329.974609375	8877.5322265625	10139.119140625	18044.587890625	2242.689697265625	9300.99609375	13900.5556640625	19786.369140625	8715.98828125	8375.8759765625	13269.2236328125	8993.5498046875	16519.498046875	12961.013671875	12211.09765625	16301.7548828125	9328.6044921875	11843.537109375	13187.0576171875	13812.35546875	13975.9541015625	13585.7578125	12202.517578125	12935.2998046875	10845.369140625	12997.4228515625	12986.123046875	1517.5001220703125	12607.9833984375	10777.1728515625	6231.48193359375	10858.9326171875	16958.4765625	8978.2373046875	11422.966796875	7106.35791015625	12510.71875	20866.609375	6421.81005859375	12819.6015625	10048.8388671875	5234.080078125	7521.361328125	9158.6259765625	14916.0654296875	8315.611328125	17583.978515625	14669.0107421875	23593.193359375	15338.0263671875	14232.2919921875	14410.7099609375	16350.0302734375	7864.94287109375	13245.998046875	13364.0654296875	10224.5673828125	13016.2626953125	9938.8896484375	18613.53515625	12399.8662109375	1192.9537353515625	10724.572265625
60	90	6628.669921875	20632.318359375	12344.6318359375	22614.978515625	16064.7060546875	31115.625	8138.8154296875	9644.8134765625	21494.658203125	17989.998046875	13166.1220703125	-21449.109375	24950.013671875	97680.53125	8781.3603515625	16732.587890625	16638.22265625	20974.9453125	16397.2890625	24894.83984375	7527.5810546875	16536.798828125	20284.65234375	30040.796875	25501.068359375	64475.05859375	1332.2984619140625	8645.5517578125	22897.84375	19297.767578125	-914.0945434570312	4153.60205078125	24540.443359375	71758.96875	36599.37890625	36269.36328125	32605.478515625	32115.744140625	25115.287109375	24997.734375	50421.4375	7769.3203125	23327.359375	43703.33203125	50661.61328125	26885.5546875	22120.98046875	38076.859375	27664.07421875	38570.515625	35677.0390625	34158.2578125	44974.65234375	26664.544921875	34860.953125	38821.42578125	42515.1015625	38404.203125	38237.58984375	38040.796875	33109.83203125	30303.734375	36598.94921875	37577.796875	6754.3984375	30060.791015625	29817.853515625	14942.0263671875	33199.30859375	50478.62890625	20319.13671875	35352.84375	21692.537109375	33499.21875	63172.21484375	14317.5810546875	34234.9296875	26788.8984375	6860.162109375	23606.44921875	26580.333984375	46069.41796875	20129.52734375	48209.22265625	39063.97265625	46216.53515625	43204.484375	38900.33984375	45216.015625	44500.25	10690.25	37149.19140625	36752.4921875	30756.462890625	36047.66015625	29629.8515625	61118.234375	32207.53515625	-1603.4742431640625	26021.921875
90	120	11672.1767578125	35508.34375	22493.3125	36692.484375	34074.21875	54482.66015625	11866.880859375	15515.7890625	37445.015625	30368.375	23967.09375	6130.8330078125	41250.703125	130412.609375	12511.927734375	28839.705078125	27829.57421875	37468.7734375	31998.4921875	52505.46484375	8815.6318359375	33632.69921875	34121.6953125	51404.23828125	37043.73046875	98742.1328125	1598.0968017578125	13399.0224609375	41794.3984375	35151.19921875	-1613.938720703125	7288.4130859375	42832.1328125	83623.140625	62548.03515625	68184.7890625	46859.5859375	60953.9765625	42615.375	40660.03515625	86370.8828125	12127.3447265625	45113.171875	75295.875	74301.6484375	47327.828125	36042.1953125	68112.5390625	46401.0	74638.6875	63706.96484375	56248.3046875	76204.3125	41045.75390625	60514.15625	63490.75390625	49332.72265625	69217.21875	66433.6953125	67594.3671875	53115.2890625	50932.62109375	81641.3984375	48891.41015625	2215.645751953125	53894.66796875	54906.58984375	44022.4296875	57351.5703125	90212.5625	42194.078125	64145.4921875	43386.76953125	55855.8828125	96248.8828125	26968.45703125	56782.5390625	53483.390625	32434.64453125	45625.2421875	31482.52734375	83584.8359375	43411.41015625	84596.8671875	68191.4609375	78708.4765625	78587.234375	78505.2734375	77450.0078125	73980.9609375	32466.658203125	70352.921875	66030.6484375	58906.85546875	60176.96875	55380.58984375	100934.8671875	46108.75	-5980.47021484375	42381.76171875
120	150	14934.697265625	50574.17578125	30277.328125	52709.00390625	64827.578125	85100.609375	1636.0054931640625	19226.666015625	57978.62109375	28694.685546875	33075.4609375	32274.48046875	49912.18359375	192148.171875	12025.2236328125	41354.4296875	36651.91015625	56025.9296875	66198.109375	84396.0625	2242.382080078125	45803.7109375	35841.84375	31776.732421875	43344.2578125	134205.265625	324.45465087890625	17309.478515625	43397.98046875	44552.28125	2261.36962890625	10697.806640625	62688.1328125	45753.12109375	88034.6171875	97860.0625	44155.24609375	89302.953125	62434.70703125	48439.1171875	109117.0546875	14549.2431640625	69823.90625	89241.5390625	82810.9453125	67205.8203125	5125.8447265625	98066.234375	68466.0	110618.375	77361.96875	73911.21875	100057.65625	46746.3203125	80951.015625	86562.421875	36437.4140625	92933.953125	84728.5859375	89025.5390625	61266.078125	68662.1328125	133272.28125	56899.32421875	1192.6649169921875	59082.359375	60260.59375	84723.1953125	76894.7421875	117791.3046875	49740.39453125	92059.9765625	64774.7734375	70620.09375	116382.828125	48013.17578125	68607.703125	84569.40625	75394.171875	66922.75	21553.81640625	95417.8515625	66608.4765625	112321.0	85603.0390625	105293.140625	115731.109375	105643.3515625	93157.4375	91963.359375	52462.32421875	98768.3828125	88513.71875	89664.7578125	69965.25	76342.59375	130036.265625	54717.28125	4595.384765625	59392.40234375
150	180	15370.5869140625	50982.74609375	32980.49609375	53289.45703125	66894.2734375	91375.2109375	463.2027893066406	17824.25	67056.6640625	33505.59375	29349.310546875	50780.03125	47437.2109375	191150.484375	12157.7919921875	42617.37890625	38678.54296875	58499.4453125	66564.3828125	89436.640625	1598.344970703125	49845.14453125	40573.26171875	30086.4453125	52457.17578125	147363.265625	-83.2708969116211	17174.658203125	49377.31640625	48203.421875	-1955.6912841796875	11330.6767578125	68140.109375	48193.9765625	90341.234375	98378.3203125	48964.6640625	98389.6875	65775.46875	50105.23046875	105501.0078125	17165.34375	71484.2265625	92262.4921875	86922.9765625	73031.4375	-5612.27587890625	94071.3828125	74219.0234375	115537.0390625	81228.890625	75433.9375	104524.328125	53474.234375	84099.2109375	94662.1484375	33593.37109375	95127.046875	90943.078125	96536.4921875	64628.5703125	72161.140625	148036.828125	58090.35546875	8378.4208984375	67851.7421875	68085.8203125	97279.9609375	82650.625	117001.1484375	48229.5703125	95391.484375	70430.171875	68086.4609375	134145.734375	49231.94140625	74826.359375	84770.59375	81719.046875	75163.15625	31533.685546875	104680.21875	72628.9921875	119200.921875	91578.40625	106493.84375	119654.71875	107017.5703125	100843.1953125	95391.3515625	63751.265625	105025.4609375	92773.75	97769.65625	73907.71875	82358.09375	127492.6328125	55627.10546875	20927.5546875	61274.109375
180	240	17044.751953125	46765.4453125	32338.82421875	53367.3046875	63784.08984375	83477.46875	8838.46875	16300.7587890625	54110.23046875	38129.8515625	21909.26171875	75417.078125	51117.3984375	145861.3125	13729.16796875	39165.76953125	36658.5546875	55100.3515625	60986.86328125	81331.046875	13401.130859375	47173.33984375	39565.06640625	26562.650390625	52932.46875	121826.859375	-1441.138427734375	16451.212890625	50164.35546875	45641.5625	-4475.6611328125	11808.294921875	63470.58203125	64215.87890625	88013.1875	83351.078125	49252.109375	94164.34375	62341.5703125	50118.12109375	104708.875	15839.587890625	71744.5859375	88841.5546875	82460.8046875	70474.875	21483.552734375	96401.03125	70731.1875	114936.34375	73285.265625	64364.375	100082.1015625	47137.76171875	83038.0078125	88104.5546875	30605.61328125	93422.6640625	89008.4375	89411.5390625	63422.359375	69736.546875	139579.109375	58768.20703125	10274.951171875	62980.42578125	63153.73046875	87675.453125	79750.65625	107915.15625	46106.48828125	90082.2734375	65745.3203125	66807.3984375	124029.5234375	46943.82421875	71617.6015625	82649.96875	77771.0703125	70621.3671875	37627.4921875	100067.2578125	65695.2578125	112840.34375	89645.3125	89832.5703125	114120.5078125	110917.15625	99487.8828125	86250.640625	68779.3515625	102435.2734375	89827.96875	91684.546875	72937.015625	78244.609375	124706.5078125	55968.45703125	14737.3525390625	59983.5
240	300	17110.05859375	40939.00390625	31306.876953125	49691.75390625	55381.83984375	78433.71875	15463.15234375	16065.6611328125	46865.09375	40909.61328125	15791.5048828125	80179.515625	51305.3828125	96481.09375	14016.439453125	34656.56640625	35477.03515625	53596.51953125	53866.6640625	75256.6640625	12453.30859375	35451.1953125	44972.23828125	34899.39453125	54584.34765625	85482.5234375	-1360.3087158203125	14951.5625	54762.23828125	41545.98046875	-7689.64404296875	12137.806640625	55543.28515625	74695.5625	84822.2578125	73911.5625	59644.46875	83221.109375	57919.45703125	47920.93359375	90918.9375	15430.8203125	67594.0546875	81774.34375	78438.625	66793.984375	38734.19140625	85499.9296875	62183.84375	105761.0859375	68722.5625	59520.42578125	94878.2890625	48964.6640625	77232.34375	80941.890625	33936.01953125	88006.390625	84088.421875	82631.6875	61147.71484375	64393.98046875	121187.1875	58177.62890625	15267.5595703125	60101.8203125	58391.02734375	87068.3203125	81018.40625	97417.0546875	49700.98046875	84726.078125	61296.21875	63187.23828125	123015.75	44212.93359375	69909.984375	71547.3984375	72316.375	68678.078125	52830.20703125	95628.7734375	62940.8125	106987.7265625	84064.453125	82392.328125	106962.3515625	103574.4296875	93166.1796875	78220.8828125	68499.2578125	96451.7734375	84447.3984375	83384.75	68961.359375	73203.4296875	112509.0234375	48741.51171875	18254.447265625	55787.265625
300	360	17244.93359375	36919.640625	30240.26953125	48316.109375	50705.15234375	72004.625	11672.142578125	15172.7666015625	43832.515625	45459.0546875	13885.5693359375	72701.96875	49429.05859375	55046.75	14426.4541015625	31065.4140625	34236.73046875	49212.25390625	46157.41015625	64668.11328125	21572.423828125	30291.533203125	49143.46484375	50317.10546875	53187.0625	59613.26953125	-1802.760498046875	14213.888671875	48803.23046875	40018.64453125	-8513.3203125	12197.1396484375	52508.62890625	78181.515625	78473.2109375	66651.9453125	61916.59765625	74566.203125	53873.34765625	48158.44140625	81784.6953125	13943.419921875	63974.6796875	75091.1796875	75268.5859375	60332.390625	45695.91796875	77859.28125	54836.76953125	97606.2734375	61203.56640625	57654.390625	87190.03125	42554.8359375	72137.6875	71719.2109375	34222.1796875	78649.953125	77390.1015625	74488.671875	59113.73046875	58834.90625	107890.8828125	52838.23828125	8347.126953125	57110.3828125	52357.9296875	78427.5078125	75763.9375	79832.203125	51697.0625	74809.3359375	56008.33984375	60190.29296875	106020.6640625	39426.0546875	66150.1640625	65783.15625	62077.9375	63056.9921875	62112.2734375	89018.1171875	57027.39453125	99502.1484375	76890.9921875	71439.359375	93345.1640625	93459.6953125	87580.9296875	68812.6953125	76129.59375	88890.5625	76273.1953125	75233.3984375	63663.67578125	67583.953125	103878.796875	49611.5625	11225.88671875	55158.70703125
360	480	18721.9140625	33588.9765625	29724.72265625	43340.62890625	39150.69921875	58457.87109375	27057.431640625	15582.1259765625	36092.44921875	47409.62109375	10702.8837890625	60366.75390625	50684.3984375	9589.3056640625	16404.65234375	26978.37109375	33239.11328125	43064.2734375	37482.21484375	53539.4296875	27911.81640625	26304.662109375	45174.65234375	37668.48828125	54742.0234375	45239.609375	-2162.68017578125	12611.77734375	49370.99609375	38147.06640625	-9500.822265625	12539.12109375	49376.5	70161.3125	68987.0390625	57729.7265625	60025.546875	63894.97265625	46610.68359375	44339.203125	79250.1328125	12012.8818359375	56905.1640625	61506.81640625	64343.8359375	54678.36328125	61397.08984375	72895.2578125	51182.11328125	89784.234375	51820.5390625	54932.9765625	75093.9921875	46001.2421875	65350.40234375	62807.5234375	32546.568359375	68991.296875	67906.859375	64806.10546875	52220.91015625	50996.28515625	96356.6015625	52405.171875	17704.041015625	52292.72265625	46716.30859375	79017.0703125	69414.9921875	69317.0	50668.82421875	66454.46875	49491.546875	58158.37890625	93507.6171875	34974.34375	58100.77734375	55756.3671875	56206.078125	56921.796875	65979.5546875	79638.46875	48804.73828125	92532.546875	67832.4140625	66586.2109375	87276.09375	85553.0234375	77823.8203125	59989.97265625	62455.10546875	76044.9296875	66805.0	65548.171875	58150.453125	61413.89453125	95329.90625	45614.76953125	9793.9931640625	50794.296875
480	600	19401.076171875	30524.912109375	27945.470703125	36670.09765625	30725.072265625	46445.6484375	30145.087890625	15902.5556640625	28587.224609375	45693.26171875	8511.2021484375	50558.1953125	50545.10546875	-4561.24560546875	17704.431640625	26275.119140625	31105.69921875	37295.22265625	29014.5234375	44264.125	32408.6171875	21313.048828125	47254.26171875	43700.79296875	49655.9453125	23227.859375	-2804.958251953125	12234.4306640625	34909.49609375	36332.30078125	-9088.9306640625	12376.6552734375	42806.421875	69770.71875	57674.984375	50707.6328125	54088.5859375	55788.11328125	39684.86328125	38375.52734375	68756.125	8735.0859375	47674.98828125	48994.43359375	58094.140625	45600.79296875	59702.98046875	64380.96484375	44732.6640625	76491.9921875	44613.7265625	49939.37890625	61940.84765625	40713.30859375	53709.78125	55726.38671875	27605.724609375	56477.515625	55294.4296875	53830.0234375	44477.4296875	41643.25390625	73956.8359375	48670.0078125	14428.5439453125	46981.41015625	44838.0625	59166.08203125	59918.55078125	58072.8125	38176.08984375	57276.87890625	41141.3515625	52920.7265625	79142.1953125	26662.255859375	50473.0546875	42626.3359375	43090.97265625	49154.421875	67056.0234375	67946.359375	40929.3203125	76355.65625	58284.171875	59175.73828125	72234.1171875	72578.9609375	67009.265625	48992.16015625	55322.2109375	61970.26953125	54448.17578125	54944.59765625	51190.65234375	52568.81640625	83334.140625	40310.98828125	11064.16015625	43006.3984375
600	900	18572.212890625	25802.041015625	23000.19140625	30497.771484375	24415.00390625	36105.82421875	30343.58984375	12928.16796875	19074.626953125	42290.94921875	6769.93505859375	37157.3515625	44544.16015625	-24722.740234375	17107.705078125	22633.443359375	24896.1796875	29222.39453125	22512.451171875	33316.7734375	33224.02734375	17161.623046875	39266.5625	32255.83984375	45340.77734375	8024.64306640625	-3711.885986328125	12723.814453125	24822.892578125	30622.853515625	-7680.8173828125	11972.525390625	37793.08203125	53522.46875	44473.0703125	38446.92578125	47132.4140625	42447.5234375	30432.537109375	32576.30078125	49607.171875	4729.31494140625	41101.2265625	35219.92578125	48249.6796875	35385.55859375	52391.0546875	46995.63671875	35802.96484375	55773.8359375	33217.61328125	41335.77734375	46289.765625	34003.7578125	40314.0546875	40070.171875	25183.494140625	42206.94140625	42400.62890625	39813.1171875	35531.46875	32324.322265625	54915.7578125	35918.70703125	21008.89453125	38439.41015625	33656.05859375	47780.75	45397.55859375	43931.70703125	36410.84375	43124.06640625	31952.19140625	42402.91015625	56419.10546875	19118.892578125	43477.921875	32183.91796875	35938.08984375	38326.390625	48959.78125	49895.2890625	36673.21484375	58426.234375	45176.03125	40979.51953125	53285.0625	50493.4453125	50137.6875	37820.234375	41732.5703125	47704.26953125	41020.75	40675.80859375	38286.69921875	39048.96875	66082.0234375	30009.27734375	14684.6826171875	36902.88671875
900	1200	17898.5390625	23082.51953125	17163.142578125	22636.005859375	17325.921875	25197.580078125	31993.44140625	11801.1015625	14452.96875	30836.509765625	5934.01953125	23975.310546875	35713.0703125	-24096.119140625	16938.7265625	20606.181640625	18214.2890625	22169.1328125	17928.677734375	23926.64453125	30309.220703125	14071.7958984375	31143.08203125	17398.71484375	34420.5546875	2301.26611328125	-3785.61279296875	12880.287109375	16942.16796875	25073.638671875	-4164.423828125	10961.3779296875	27541.578125	40023.39453125	31185.44140625	27647.88671875	35550.8671875	30428.6640625	21416.619140625	25033.32421875	34936.94140625	1776.637939453125	31105.12109375	24182.71484375	34150.66796875	26240.244140625	34576.28515625	33214.92578125	26629.087890625	38251.41015625	25319.7421875	32271.275390625	30939.513671875	24935.490234375	27659.91796875	29767.509765625	22329.76171875	29856.166015625	29135.294921875	28976.818359375	24733.794921875	23179.83203125	38689.33203125	24990.625	18822.15625	30750.8203125	27048.69921875	31152.5859375	32868.9453125	30691.396484375	28543.73828125	32000.876953125	22698.1484375	32609.814453125	38844.2421875	12453.3720703125	34769.90625	22968.109375	26362.537109375	27243.591796875	30798.705078125	34310.04296875	28980.36328125	40338.31640625	32607.466796875	28623.880859375	36750.9140625	33102.84765625	34902.8515625	26077.951171875	28875.119140625	32998.3515625	27351.521484375	29086.35546875	27631.7265625	27632.572265625	49199.08984375	21402.0	17465.615234375	27860.384765625
1200	1500	17521.888671875	20883.234375	12775.2919921875	17009.494140625	12642.974609375	17907.4453125	28747.416015625	9714.5732421875	10151.0859375	28652.14453125	6199.79541015625	8153.78515625	31054.58984375	-25656.888671875	16953.53515625	19135.296875	13593.201171875	15798.3564453125	11872.3251953125	17612.73046875	28198.298828125	9218.966796875	25916.310546875	12633.748046875	28469.962890625	-1604.8582763671875	-3802.4912109375	12094.791015625	11055.580078125	21357.66015625	-2392.737060546875	10590.2451171875	22584.615234375	30094.220703125	24774.080078125	24561.71484375	24967.70703125	23646.724609375	16379.0966796875	22152.44140625	28707.693359375	499.9005126953125	26290.0546875	16521.974609375	25641.48046875	20316.66796875	33516.34375	24080.212890625	23532.927734375	32200.806640625	18847.353515625	30729.5390625	24592.564453125	24024.826171875	21075.703125	23960.494140625	18280.326171875	23334.66796875	21310.248046875	20822.322265625	19365.529296875	18106.876953125	31127.09765625	17351.08203125	17341.51953125	24761.98828125	21639.83203125	26074.326171875	25611.3046875	24992.580078125	15915.9990234375	27114.91796875	17333.455078125	27522.544921875	29428.50390625	8572.5615234375	29193.029296875	15722.2197265625	19928.369140625	21444.58984375	28525.6875	25884.353515625	24691.830078125	33076.28515625	25196.353515625	26000.263671875	27810.94921875	24794.30078125	26450.169921875	20474.62109375	23033.37890625	24836.5625	20229.93359375	21163.14453125	21068.36328125	21595.837890625	42552.6171875	17052.740234375	18039.00390625	22796.734375
1500	1800	16753.859375	18588.814453125	10494.3671875	13919.8271484375	10961.4443359375	14133.626953125	25731.732421875	8609.3994140625	9059.9169921875	19872.30859375	5777.86767578125	-735.0926513671875	24129.595703125	-21247.828125	15991.8076171875	17101.904296875	10732.828125	12937.9765625	11601.62890625	13407.1943359375	25011.654296875	10152.1943359375	19210.70703125	3712.9580078125	24110.158203125	-6437.9638671875	-3624.944580078125	12150.6806640625	11619.669921875	17956.75	-1573.5128173828125	10343.2275390625	21121.2265625	25617.087890625	21078.34375	19031.8671875	21935.279296875	19975.798828125	14083.6015625	19158.197265625	22010.69921875	49.29182815551758	23574.537109375	14171.27734375	22923.984375	17568.603515625	25801.990234375	18866.63671875	20774.455078125	25446.1640625	16135.0478515625	27385.77734375	20690.447265625	19730.001953125	17940.337890625	20042.623046875	16093.69921875	19903.4296875	18187.94921875	18447.501953125	16248.205078125	15940.1142578125	26479.576171875	14456.83984375	20078.775390625	22106.013671875	18929.146484375	22498.75	22665.865234375	23288.87109375	16858.83984375	22095.923828125	15230.361328125	24340.919921875	25836.23046875	8113.986328125	25378.580078125	15262.0380859375	17469.392578125	17417.158203125	21709.392578125	20237.1015625	21203.416015625	28275.28125	23142.025390625	20354.849609375	23695.650390625	20631.708984375	21693.318359375	17952.072265625	19512.1015625	22480.630859375	16294.4873046875	18463.177734375	17170.0625	18165.783203125	36169.90625	12694.748046875	17517.84765625	19902.29296875
1800	2100	16499.99609375	16303.36328125	8781.0234375	12669.6240234375	10616.099609375	11567.3544921875	21101.328125	6895.81201171875	8716.0478515625	17756.361328125	7217.77978515625	-9133.814453125	19458.33203125	-25583.4140625	16154.4638671875	15595.8837890625	8477.7548828125	11372.78125	9124.2685546875	12104.455078125	19787.73046875	10128.2080078125	15125.41015625	-7191.88623046875	17712.9375	-9516.091796875	-3831.269775390625	12159.14453125	10816.53515625	14935.1640625	2414.043701171875	9734.71484375	18639.248046875	20104.55859375	17923.13671875	15767.1728515625	13297.1279296875	17910.498046875	11812.962890625	16277.546875	18873.54296875	-1330.443115234375	19221.88671875	11408.615234375	18532.181640625	14427.0615234375	20071.310546875	14701.8466796875	17927.779296875	22069.302734375	13368.3203125	22182.580078125	16540.484375	18572.783203125	14566.974609375	17355.783203125	15302.0673828125	16523.626953125	13473.6953125	13601.951171875	13829.123046875	13405.08203125	22686.552734375	13688.09765625	18237.603515625	18772.486328125	17492.484375	20415.447265625	20305.431640625	20443.013671875	8487.123046875	20016.330078125	12330.6201171875	20348.380859375	19535.50390625	4565.89306640625	21174.15234375	14414.603515625	13773.4833984375	14400.126953125	14945.7587890625	16378.4033203125	19820.44921875	25392.525390625	17385.89453125	15936.0126953125	17597.015625	17543.11328125	18369.146484375	15254.77734375	19581.31640625	17589.919921875	11748.9013671875	14158.08203125	13804.53125	15293.958984375	28011.6171875	10578.2705078125	21655.107421875	17156.41015625
2100	2400	15251.8251953125	16665.484375	7367.75732421875	11154.662109375	9723.9990234375	10786.3525390625	18872.201171875	6308.11962890625	6719.41552734375	15025.40234375	4018.37060546875	-9488.8115234375	18863.982421875	-8848.3310546875	14818.4970703125	15116.732421875	8215.6298828125	9902.599609375	10304.7880859375	10758.4033203125	19905.05078125	7308.7109375	13713.9228515625	-6911.22412109375	18389.87109375	8884.904296875	-3252.642578125	11389.318359375	6037.109375	13840.5439453125	-667.5858764648438	10024.859375	16152.6044921875	20019.533203125	16731.90234375	18854.96875	15663.2333984375	18827.998046875	11862.029296875	17697.2109375	17378.279296875	2643.3583984375	21006.673828125	14435.7578125	16893.90625	15127.4365234375	18542.37890625	14550.8125	16157.044921875	23664.810546875	16311.232421875	27022.978515625	17695.455078125	19663.16015625	14126.0	17145.326171875	12541.3212890625	16837.615234375	12813.4560546875	17317.05859375	11515.3388671875	12781.97265625	16753.23828125	10899.3056640625	16450.666015625	19403.75	15933.517578125	21351.21875	17831.328125	16584.16015625	11338.095703125	17661.712890625	13138.7978515625	20866.919921875	19901.501953125	8192.974609375	22317.939453125	13533.078125	16333.8857421875	15716.22265625	19356.056640625	17075.998046875	19030.015625	21214.1484375	19208.8828125	16291.8828125	20457.859375	14792.2158203125	16971.7578125	15503.0693359375	17801.21484375	18440.412109375	14258.984375	17141.318359375	14567.7666015625	15106.9248046875	34412.3984375	9473.732421875	17147.818359375	16356.8359375
2400	2700	14700.0693359375	15643.62890625	6636.853515625	9548.708984375	9215.0595703125	8493.328125	20393.3984375	5453.84521484375	7252.82373046875	13187.568359375	5866.2529296875	-12427.2880859375	16200.921875	-22611.931640625	14535.5322265625	14262.404296875	7478.17431640625	9106.466796875	7954.87744140625	10957.93359375	17750.53125	7277.10693359375	13186.8681640625	-6835.62841796875	15307.376953125	-8007.060546875	-3035.642578125	11129.6611328125	5310.1767578125	12127.451171875	470.43719482421875	9739.19140625	16642.2265625	18651.572265625	16167.1630859375	16134.5869140625	13037.2177734375	16462.568359375	11358.27734375	17371.537109375	19842.12890625	2371.21435546875	18713.390625	14849.6552734375	15919.830078125	14278.740234375	14846.103515625	14477.8720703125	16459.1171875	24476.0	14617.7421875	25741.560546875	16260.8427734375	14931.9990234375	13621.056640625	15524.470703125	10959.564453125	16921.80078125	12062.2666015625	15561.32421875	11068.560546875	12569.9638671875	15204.46484375	9663.6923828125	13228.072265625	18192.5078125	15252.208984375	18977.732421875	17732.771484375	16086.4150390625	7186.99658203125	17248.279296875	11952.4287109375	18829.54296875	20138.951171875	7291.14697265625	20299.845703125	12386.4560546875	15528.0732421875	14528.0244140625	16386.1875	15402.7041015625	18861.083984375	20003.6796875	15924.3974609375	15846.09765625	19127.658203125	16431.875	16022.2861328125	14331.4951171875	18491.47265625	17122.755859375	12897.5830078125	13987.4482421875	12971.1005859375	13729.955078125	32597.919921875	8875.11328125	21154.62109375	15439.837890625
