frame_start	frame_end	Left-Cerebral-White-Matter	Left-Cerebellum-White-Matter	Left-Cerebellum-Cortex	Left-Thalamus	Left-Caudate	Left-Putamen	Left-Pallidum	Brain-Stem	Left-Hippocampus	Left-Amygdala	CSF	Left-Accumbens-area	Left-VentralDC	Left-choroid-plexus	Right-Cerebral-White-Matter	Right-Cerebellum-White-Matter	Right-Cerebellum-Cortex	Right-Thalamus	Right-Caudate	Right-Putamen	Right-Pallidum	Right-Hippocampus	Right-Amygdala	Right-Accumbens-area	Right-VentralDC	Right-choroid-plexus	AirCavity	Skull	Vermis	Pons	CSF-ExtraCerebral	Head-ExtraCerebral	ctx-lh-bankssts	ctx-lh-caudalanteriorcingulate	ctx-lh-caudalmiddlefrontal	ctx-lh-cuneus	ctx-lh-entorhinal	ctx-lh-fusiform	ctx-lh-inferiorparietal	ctx-lh-inferiortemporal	ctx-lh-isthmuscingulate	ctx-lh-lateraloccipital	ctx-lh-lateralorbitofrontal	ctx-lh-lingual	ctx-lh-medialorbitofrontal	ctx-lh-middletemporal	ctx-lh-parahippocampal	ctx-lh-paracentral	ctx-lh-parsopercularis	ctx-lh-parsorbitalis	ctx-lh-parstriangularis	ctx-lh-pericalcarine	ctx-lh-postcentral	ctx-lh-posteriorcingulate	ctx-lh-precentral	ctx-lh-precuneus	ctx-lh-rostralanteriorcingulate	ctx-lh-rostralmiddlefrontal	ctx-lh-superiorfrontal	ctx-lh-superiorparietal	ctx-lh-superiortemporal	ctx-lh-supramarginal	ctx-lh-frontalpole	ctx-lh-temporalpole	ctx-lh-transversetemporal	ctx-lh-insula	ctx-rh-bankssts	ctx-rh-caudalanteriorcingulate	ctx-rh-caudalmiddlefrontal	ctx-rh-cuneus	ctx-rh-entorhinal	ctx-rh-fusiform	ctx-rh-inferiorparietal	ctx-rh-inferiortemporal	ctx-rh-isthmuscingulate	ctx-rh-lateraloccipital	ctx-rh-lateralorbitofrontal	ctx-rh-lingual	ctx-rh-medialorbitofrontal	ctx-rh-middletemporal	ctx-rh-parahippocampal	ctx-rh-paracentral	ctx-rh-parsopercularis	ctx-rh-parsorbitalis	ctx-rh-parstriangularis	ctx-rh-pericalcarine	ctx-rh-postcentral	ctx-rh-posteriorcingulate	ctx-rh-precentral	ctx-rh-precuneus	ctx-rh-rostralanteriorcingulate	ctx-rh-rostralmiddlefrontal	ctx-rh-superiorfrontal	ctx-rh-superiorparietal	ctx-rh-superiortemporal	ctx-rh-supramarginal	ctx-rh-frontalpole	ctx-rh-temporalpole	ctx-rh-transversetemporal	ctx-rh-insula
0	30	231.5852813720703	142.10963439941406	140.29629516601562	259.9885559082031	152.49835205078125	298.6203918457031	277.74114990234375	280.06201171875	429.7016906738281	439.2650146484375	158.8861083984375	149.72415161132812	273.749755859375	212.7311248779297	217.6902313232422	216.5928192138672	179.3187255859375	261.152099609375	85.14164733886719	200.63865661621094	153.48980712890625	266.5783996582031	198.17601013183594	119.36494445800781	325.4315185546875	182.89146423339844	108.15081787109375	155.40626525878906	134.7945556640625	169.9763641357422	257.8065185546875	68.70050048828125	118.67857360839844	561.8060302734375	244.71627807617188	242.63961791992188	427.6451110839844	240.67420959472656	223.80194091796875	208.2849578857422	314.09710693359375	156.78857421875	292.3735656738281	197.9463653564453	409.8374938964844	211.984130859375	209.1566162109375	251.98138427734375	332.38287353515625	370.65618896484375	312.6822814941406	239.87745666503906	341.4678039550781	216.37342834472656	300.83526611328125	292.1183166503906	524.3596801757812	298.75146484375	320.62542724609375	227.9715118408203	386.5346374511719	269.52105712890625	287.8907470703125	607.5803833007812	301.3216857910156	377.7477111816406	164.8092041015625	422.9390563964844	298.3477783203125	261.0229187011719	215.92178344726562	221.94126892089844	195.49949645996094	223.0965118408203	394.0765686035156	134.6534881591797	313.4463195800781	220.72476196289062	222.13189697265625	202.29867553710938	303.9281311035156	375.4632873535156	261.80029296875	486.96063232421875	254.1064453125	246.34625244140625	327.6948547363281	277.26214599609375	330.048828125	282.9002990722656	440.962646484375	288.0335388183594	290.4147033691406	170.07046508789062	372.5285339355469	256.87725830078125	207.59767150878906	469.69964599609375	142.5008544921875	296.670654296875
30	60	5557.56884765625	6070.955078125	4964.9150390625	7313.7763671875	4905.96533203125	6965.25390625	5438.5009765625	5206.42578125	6696.689453125	5138.38525390625	5125.1923828125	4390.71337890625	5926.08349609375	5069.21484375	5824.4833984375	5682.86474609375	5403.44189453125	6919.2744140625	5152.20166015625	6578.65234375	4865.548828125	5947.9892578125	5636.794921875	5357.90966796875	5965.0146484375	5185.48876953125	2026.6673583984375	2798.18994140625	5801.30712890625	5464.1435546875	5252.39306640625	1608.5003662109375	4745.89111328125	8471.7529296875	7033.89111328125	7438.93896484375	5344.67578125	6029.5390625	5197.17431640625	6139.53662109375	7942.36328125	3234.0263671875	5756.3759765625	6739.5576171875	7470.595703125	6033.85888671875	7316.93212890625	6927.26171875	6397.1689453125	6382.08447265625	6582.3291015625	6005.943359375	7486.2548828125	7265.55810546875	6681.97607421875	7646.80517578125	7878.06298828125	7325.36279296875	7310.17626953125	6564.419921875	7024.94970703125	6564.2646484375	6504.875	6664.0537109375	5512.400390625	6871.55517578125	5783.1640625	6879.3291015625	6629.048828125	8739.08203125	4562.58447265625	6689.78271484375	4529.294921875	6754.1279296875	8168.00048828125	4394.35888671875	6126.69970703125	6802.21533203125	5890.43896484375	5945.8935546875	6558.21630859375	7406.67333984375	6390.91748046875	7663.740234375	7358.68701171875	8816.041015625	7481.03662109375	8381.3623046875	7321.5576171875	8594.185546875	6627.68701171875	7079.73876953125	7025.74951171875	5691.0263671875	6965.9873046875	6390.81689453125	5971.72216796875	6628.3857421875	6003.359375	6873.0361328125
60	90	15526.333984375	17075.369140625	13022.4794921875	18304.044921875	12062.173828125	18176.78515625	14724.9814453125	12568.64453125	16912.900390625	15438.833984375	13643.47265625	11061.119140625	16682.326171875	16516.376953125	16349.705078125	16378.9638671875	14709.9443359375	17950.9296875	14381.03125	17141.109375	13535.5927734375	16179.7822265625	15366.73046875	13209.123046875	16830.357421875	16201.7509765625	5339.45166015625	7300.712890625	15648.6328125	15103.705078125	13582.361328125	4475.6513671875	14270.1826171875	23822.78125	19125.52734375	19613.525390625	13542.9921875	16700.462890625	14706.8193359375	15567.802734375	23193.880859375	9061.3681640625	14813.201171875	19539.412109375	18802.759765625	17043.197265625	17889.544921875	19660.33984375	17524.400390625	16559.705078125	17888.822265625	16514.158203125	20456.28515625	20559.2578125	18701.830078125	22345.212890625	21328.40234375	19548.86328125	19527.3203125	19104.58203125	18512.271484375	18177.396484375	16855.189453125	17166.822265625	15595.228515625	17839.548828125	18283.892578125	18812.3359375	18931.5625	22547.2109375	12967.3447265625	19147.564453125	12845.0625	18008.546875	23133.486328125	10905.564453125	16031.041015625	18180.251953125	13529.7509765625	16837.578125	18117.6328125	21595.056640625	17016.16015625	20974.25	20343.09765625	21166.740234375	21111.65234375	22826.59375	21365.53515625	23403.169921875	15248.4501953125	19254.373046875	18661.38671875	15428.5205078125	18871.953125	18113.18359375	17882.818359375	17096.744140625	16143.7275390625	18056.841796875
90	120	26632.56640625	29246.048828125	23184.33203125	30321.162109375	24779.16796875	32417.671875	25406.8203125	20782.66015625	28769.615234375	26046.060546875	23479.943359375	23497.96875	27331.396484375	26608.509765625	27722.724609375	28402.912109375	24879.607421875	30818.775390625	24601.640625	32043.3515625	23878.611328125	27984.33203125	25898.06640625	25113.294921875	26366.626953125	26682.455078125	8562.134765625	11858.1416015625	27178.90625	27140.044921875	23560.5703125	7487.3525390625	23512.814453125	36010.72265625	32216.896484375	34157.57421875	23817.607421875	30230.890625	25205.259765625	26454.455078125	39250.50390625	15041.1796875	26272.845703125	33789.57421875	31049.626953125	28769.37890625	31415.3671875	34604.859375	30538.9765625	30070.080078125	31785.841796875	28586.33984375	34461.14453125	35034.6328125	32013.9609375	37356.24609375	32262.060546875	35099.125	33840.65234375	33077.4921875	30380.955078125	30309.48828125	31867.51953125	24145.322265625	23725.92578125	31484.458984375	30275.115234375	33930.14453125	32118.765625	39566.1484375	24292.359375	32244.7109375	24306.931640625	30201.107421875	38069.84375	19054.625	26891.583984375	32263.998046875	26992.177734375	29660.21484375	29461.783203125	38431.1796875	30990.23828125	34533.58984375	34560.140625	35595.234375	36041.1015625	40459.515625	36112.09765625	39094.8359375	27723.51171875	34219.7109375	33139.2890625	28441.81640625	32038.890625	32186.544921875	30033.896484375	26890.791015625	25009.177734375	30157.771484375
120	150	35079.96484375	40759.02734375	31241.08203125	42828.44921875	41487.13671875	47960.19140625	34189.04296875	27060.947265625	37082.06640625	33817.25390625	32836.33203125	36180.15625	36340.515625	36672.109375	35639.6875	38775.375	33854.57421875	43085.02734375	39220.9375	45815.3984375	31821.767578125	34534.3515625	32850.15234375	36077.05078125	33461.08984375	31786.4609375	11221.134765625	15689.6162109375	34027.390625	35783.4609375	32653.22265625	10486.6142578125	32693.111328125	39288.81640625	44474.19140625	47439.4140625	30404.24609375	40944.57421875	36107.07421875	34671.2578125	49308.078125	19724.142578125	36569.3046875	43104.65234375	40956.15234375	39116.58984375	35937.25390625	47529.25390625	42569.78515625	44341.79296875	41802.390625	38484.140625	45037.87890625	44904.75	43366.0234375	49705.46875	38907.4453125	47181.3671875	44923.14453125	44755.45703125	38429.796875	40736.5390625	45417.3515625	31414.06640625	29497.078125	39724.74609375	32486.2578125	45413.59375	41027.4765625	52222.23828125	30555.4921875	43921.62109375	36313.58984375	40281.4609375	47956.234375	28646.755859375	33930.7890625	44837.95703125	41339.34375	40293.984375	35920.46875	47036.75390625	40073.125	44490.3359375	43040.015625	46763.14453125	48439.15625	51286.453125	44662.59375	49851.41015625	36122.9609375	46170.36328125	44356.49609375	42157.94921875	39912.96484375	42879.79296875	42881.609375	34251.375	31258.884765625	40650.640625
150	180	36490.265625	41643.50390625	33354.54296875	43172.125	41757.40234375	51093.91015625	35371.0546875	27214.568359375	39976.03125	37021.734375	33124.84375	40114.31640625	35367.6796875	38424.6328125	37037.23046875	40480.42578125	35102.27734375	44743.60546875	39077.453125	48968.55859375	32862.6328125	37706.66796875	34542.99609375	37576.36328125	36456.234375	32899.84765625	11254.822265625	15811.044921875	35323.70703125	37457.36328125	33151.97265625	10854.5615234375	34853.13671875	40846.12890625	45736.203125	48561.34375	33428.65234375	43890.9609375	38100.76953125	35918.96484375	50757.5390625	20587.83203125	36876.4921875	43793.828125	42481.29296875	41356.15234375	37495.046875	47803.98046875	44642.04296875	46458.08984375	42970.37890625	39444.71875	46312.4375	46669.6328125	44533.390625	51950.03125	39491.2578125	48149.15234375	46949.47265625	46864.45703125	40271.26171875	42061.0234375	49265.8046875	32001.416015625	32497.228515625	43254.828125	35752.56640625	48991.390625	42648.9765625	53221.33203125	31986.57421875	45161.78515625	38232.76171875	39683.19921875	50744.92578125	28892.74609375	36268.359375	45996.84765625	43600.8359375	42644.16796875	38569.9453125	49441.19140625	41437.484375	47166.296875	44584.94921875	46851.9375	50138.74609375	52333.86328125	46615.0546875	50849.08203125	39729.94921875	48063.01953125	45563.390625	44050.2109375	42203.859375	45001.4453125	42741.74609375	35003.1171875	35178.52734375	41860.23828125
180	240	36206.30859375	39484.16796875	32046.123046875	42675.20703125	40759.84375	48889.31640625	36440.9921875	25615.216796875	38431.16015625	34095.06640625	30670.681640625	41263.96484375	35967.29296875	35145.95703125	36306.3125	37547.00390625	33283.8828125	42770.81640625	36347.07421875	45998.7890625	34611.796875	35928.88671875	33346.00390625	35285.28125	35747.26171875	30019.513671875	10259.265625	15308.03125	34487.9453125	34986.41015625	31301.486328125	11026.2958984375	34528.984375	43048.61328125	43973.06640625	44156.25	31044.78515625	43111.359375	36131.05859375	35201.61328125	49320.69140625	19956.705078125	37387.6875	42473.296875	40916.25390625	40258.14453125	38196.96484375	47249.12109375	43349.5625	46239.890625	41529.4375	36001.03515625	44751.08984375	44962.5078125	43864.03515625	48725.44921875	38092.515625	47239.92578125	45866.33984375	43686.4765625	39475.83203125	41153.11328125	47234.97265625	31853.12890625	32237.521484375	41768.0390625	34888.671875	47230.2421875	41528.34375	47566.48046875	30216.9453125	43185.109375	36215.48046875	38037.38671875	48671.4921875	27899.265625	35122.40625	43649.05078125	41562.83203125	40828.40625	37400.87890625	47333.98046875	40508.75390625	44445.72265625	43265.4609375	42520.34765625	48003.9609375	51983.47265625	45772.859375	47635.671875	39589.35546875	46594.34765625	44236.6640625	41386.6328125	40924.59765625	42982.2109375	42149.75390625	33701.85546875	35342.9296875	40807.66015625
240	300	34258.5625	35960.83984375	30268.603515625	39615.359375	37418.3984375	47353.3671875	36624.7578125	23910.5078125	35480.68359375	33493.734375	27474.94921875	37920.765625	35207.94140625	29488.833984375	34443.1640625	34739.2265625	31407.01171875	40754.0234375	33231.9296875	43068.5078125	32357.138671875	32401.267578125	31629.16015625	33863.31640625	35363.6953125	27217.01171875	9402.2138671875	14209.1015625	34129.6796875	31679.4609375	28504.66796875	11009.4208984375	32089.06640625	43735.8046875	42278.8359375	39132.7265625	31984.158203125	40141.94921875	33435.67578125	33423.3125	44424.77734375	18890.4375	35285.86328125	39480.9921875	39019.88671875	38187.015625	38166.6796875	42817.66015625	39148.3984375	43110.86328125	38873.359375	33231.3515625	42253.8046875	43128.89453125	40717.68359375	44523.46875	37452.58203125	44338.1640625	43148.28125	40245.8515625	37591.5078125	37940.875	43633.8671875	30122.51171875	31821.884765625	39707.5390625	33461.58984375	45780.828125	40346.875	42871.53125	29219.06640625	41622.8984375	33173.3046875	35638.9453125	46263.3359375	25813.28125	33924.66796875	39759.1875	39189.875	38983.59375	37615.71484375	44669.859375	37906.53515625	41303.7578125	40210.50390625	39042.41015625	44831.5703125	48801.28515625	42898.3671875	43690.9296875	38284.2109375	43551.19140625	41190.61328125	37289.1484375	38281.953125	40459.51171875	38123.3359375	30763.0078125	33511.72265625	38320.08984375
300	360	32325.4375	33032.82421875	28772.9296875	37968.99609375	34591.90234375	44141.875	33515.93359375	22955.203125	34821.37109375	33122.7734375	25268.32421875	35797.60546875	33705.234375	26219.09765625	32262.669921875	32151.724609375	29823.78515625	38000.23046875	30239.65625	39716.29296875	32056.333984375	30454.431640625	32286.8046875	33873.078125	33832.09375	24018.40234375	8827.203125	13554.2822265625	31712.06640625	30121.125	26015.677734375	10919.06640625	30868.5234375	41855.08203125	38939.55859375	35558.1328125	30702.08203125	37392.0546875	31210.91015625	32310.9375	40189.5859375	17900.19140625	33639.84375	36566.3671875	36645.4140625	35911.078125	37346.7265625	39419.8515625	35958.05078125	40146.125	35607.86328125	31457.404296875	38955.23046875	38800.17578125	38148.98828125	40335.44140625	35823.45703125	40001.0078125	40004.03515625	36629.46484375	35574.3125	35193.26171875	40369.65234375	27510.583984375	29032.14453125	37385.44921875	31384.16015625	42163.0390625	37593.17578125	37025.828125	27990.267578125	38630.87109375	30540.5	33433.20703125	40479.24609375	23620.154296875	32423.9609375	36838.91015625	35633.80078125	36403.52734375	37133.96484375	41328.5	35168.98828125	38382.87109375	37360.8125	35213.53125	40283.9765625	44474.703125	39733.58984375	38690.96875	38478.9609375	40120.875	37625.01171875	33756.03515625	35494.5234375	37478.77734375	36540.09765625	30587.9296875	31534.693359375	36781.15625
360	480	30460.4921875	31110.986328125	27503.65234375	34932.265625	29554.322265625	38985.828125	34588.6875	22388.517578125	33050.83984375	31345.142578125	23191.37109375	31458.416015625	32985.4453125	24286.728515625	30580.013671875	29252.80078125	28296.12109375	34359.76171875	26319.498046875	35716.15234375	31017.28125	28351.439453125	29091.001953125	28573.91015625	33400.58203125	23172.888671875	7992.7060546875	12439.9794921875	31219.279296875	28439.150390625	23031.412109375	10910.408203125	30375.68359375	38874.0078125	35370.49609375	31553.435546875	28339.51953125	34167.765625	27714.361328125	29720.646484375	37928.24609375	16476.970703125	31612.162109375	32666.23046875	33178.828125	33024.203125	36085.390625	37121.7265625	33133.9609375	37774.6171875	31896.48046875	30009.560546875	34949.09765625	37744.859375	34945.3984375	36163.03125	32640.8203125	36074.53515625	35658.97265625	32503.6015625	32255.080078125	31228.3046875	36545.14453125	27113.279296875	28921.828125	34828.51953125	29929.73828125	39859.6015625	34672.12890625	33316.66796875	26297.982421875	36382.25	27336.708984375	31710.5859375	37339.9609375	21817.07421875	30510.951171875	33537.92578125	33043.62890625	33926.6171875	35172.51953125	37820.67578125	32247.5390625	35579.9765625	33969.765625	33233.49609375	37541.796875	41448.34765625	36578.08203125	35026.65234375	33759.00390625	35165.08203125	33402.94921875	30076.287109375	32602.248046875	34874.51171875	32955.234375	28310.044921875	30486.294921875	34044.515625
480	600	27687.892578125	28388.298828125	25521.40234375	30773.37109375	25224.423828125	33840.34765625	31440.662109375	21555.21484375	29182.751953125	28866.98828125	20929.52734375	28469.8046875	31256.865234375	21673.671875	27844.22265625	27629.845703125	26280.416015625	30356.888671875	23315.814453125	32410.380859375	29847.474609375	26154.798828125	28079.400390625	27256.29296875	30604.1875	20274.62890625	7371.8017578125	11848.9755859375	26505.154296875	27428.544921875	19853.666015625	10678.6474609375	27699.521484375	34584.734375	30506.109375	28145.982421875	26726.009765625	31160.359375	24112.28125	26471.259765625	34003.77734375	14801.890625	27802.3359375	28497.19921875	29294.212890625	29031.130859375	32896.875	32876.734375	29466.748046875	33163.75390625	28518.982421875	27149.966796875	29940.21875	33342.53515625	30305.876953125	32242.8046875	28308.556640625	30795.5625	30245.328125	27960.197265625	28235.865234375	26971.818359375	29741.626953125	24514.19921875	26270.955078125	31217.08203125	29013.15234375	33087.6875	30804.396484375	29265.21484375	23423.79296875	32889.1484375	23341.501953125	29089.529296875	32847.7109375	18419.423828125	27299.578125	28831.623046875	28065.298828125	30336.708984375	33050.48046875	33348.0234375	28301.556640625	30892.111328125	30271.54296875	29910.6484375	32354.0	36613.91796875	32206.291015625	30272.529296875	29872.869140625	29897.603515625	28333.498046875	26081.041015625	29096.046875	30468.546875	28731.474609375	25657.619140625	28245.60546875	30170.404296875
600	900	23421.96875	23647.083984375	21200.845703125	25952.453125	21242.599609375	28508.31640625	28027.35546875	18182.578125	23514.943359375	25453.658203125	17960.15625	24117.962890625	27238.7890625	16943.005859375	23331.533203125	22895.970703125	21468.0	24911.060546875	19489.62109375	26882.482421875	26515.595703125	21666.53125	24004.736328125	23212.15625	27151.697265625	16357.3046875	6802.75927734375	11466.5693359375	21207.671875	23225.888671875	16251.376953125	10486.9296875	24636.15234375	27818.689453125	24880.142578125	22629.412109375	22601.28125	25512.908203125	20006.568359375	22700.474609375	26322.140625	12652.9697265625	24068.201171875	22692.79296875	24532.380859375	24235.140625	27140.62890625	25890.67578125	24487.62890625	26631.029296875	23559.5234375	22966.765625	23992.400390625	26766.486328125	24243.302734375	25164.263671875	23842.087890625	24730.44140625	24326.162109375	22344.220703125	23737.39453125	22448.197265625	24029.76171875	19932.841796875	23224.458984375	26270.59765625	23820.90234375	26936.45703125	24660.642578125	22965.51171875	20974.2421875	26291.16015625	19322.92578125	23841.126953125	25506.369140625	15132.201171875	23552.623046875	22900.107421875	23776.05078125	24632.81640625	25451.642578125	25890.70703125	24415.705078125	25715.435546875	25131.47265625	23750.14453125	25299.986328125	27841.62890625	25499.59375	24073.41796875	23939.1171875	24123.130859375	22579.521484375	20695.921875	23286.365234375	24222.44921875	23908.599609375	21028.095703125	23168.009765625	25665.861328125
900	1200	19532.3984375	19763.3046875	16663.81640625	20339.91796875	17165.61328125	22895.248046875	24183.72265625	15376.6943359375	18670.25390625	20118.55078125	15314.576171875	19850.6640625	22275.501953125	14442.40234375	19449.357421875	19051.275390625	16689.375	19824.556640625	16776.6640625	21956.609375	22682.748046875	17474.044921875	20137.236328125	18174.08984375	21899.455078125	14180.216796875	6342.41259765625	11012.109375	16550.515625	19532.4296875	13284.1513671875	9821.2451171875	19879.537109375	21255.896484375	19641.884765625	18377.056640625	17902.251953125	19959.212890625	16374.2568359375	18860.189453125	20637.201171875	10892.0146484375	19641.091796875	17994.15625	19470.18359375	19600.72265625	20534.40234375	20052.5234375	19900.201171875	20963.19140625	19702.658203125	19235.833984375	18408.7578125	20743.1171875	18838.134765625	20068.125	19153.728515625	19695.94921875	18730.25390625	17917.107421875	18848.185546875	18117.03125	18678.546875	15764.7255859375	19127.029296875	21467.46875	20434.560546875	19850.349609375	19384.07421875	18104.1640625	17630.1796875	20969.8125	15626.1259765625	19439.892578125	19936.021484375	12712.025390625	19810.701171875	18127.890625	19075.50390625	19368.55859375	19804.244140625	19877.265625	19931.162109375	20587.73828125	20260.818359375	19245.98828125	19473.625	21230.228515625	19741.830078125	18830.876953125	18958.744140625	18775.53125	17273.7421875	16546.400390625	18482.01953125	19179.275390625	19341.009765625	17236.701171875	19240.724609375	20821.892578125
1200	1500	17322.638671875	16696.345703125	13146.8798828125	16415.732421875	14572.5244140625	18953.123046875	20818.462890625	13229.162109375	15550.84375	17957.1328125	13687.0595703125	15738.08203125	19252.728515625	12409.056640625	17262.62890625	16490.763671875	13269.724609375	15572.2001953125	14206.7861328125	18595.3828125	20037.0703125	14314.0546875	16887.849609375	15368.5849609375	18570.69921875	12720.501953125	5856.6396484375	10205.2646484375	13065.9765625	17000.00390625	11231.5537109375	9504.94140625	17603.353515625	17614.482421875	16581.447265625	16585.4453125	14392.4267578125	16658.82421875	13806.736328125	16793.73046875	17681.142578125	9696.6474609375	17430.154296875	15056.591796875	16178.9951171875	16857.017578125	18187.158203125	17042.689453125	17605.328125	18451.345703125	17109.06640625	17893.248046875	15679.9794921875	18241.03515625	15906.33203125	17321.5859375	16015.1396484375	16688.11328125	15407.2890625	15004.8486328125	15974.34375	15524.8994140625	15481.5361328125	12600.1171875	16832.146484375	18512.341796875	17742.970703125	16822.701171875	16510.32421875	16023.4765625	14445.431640625	18179.3203125	13013.5615234375	17079.5	17093.158203125	10896.8798828125	17703.79296875	14921.7626953125	15985.0078125	16536.6015625	17290.40234375	16561.6171875	17575.966796875	18025.599609375	17487.072265625	17656.443359375	16310.4765625	18016.912109375	16535.458984375	16148.9365234375	16163.6162109375	15590.4013671875	14382.0390625	13858.27734375	15539.4501953125	16215.9599609375	16808.03515625	14853.0283203125	16253.7978515625	18065.515625
1500	1800	15857.5380859375	14542.9931640625	11343.4189453125	13954.56640625	13096.341796875	16381.6640625	17979.74609375	11545.6728515625	13305.1005859375	14777.248046875	12323.8046875	12840.990234375	15877.1435546875	11988.412109375	15650.8603515625	14256.7646484375	11149.8251953125	13367.7421875	12876.2470703125	15899.642578125	17408.40234375	12957.9228515625	14620.619140625	13048.548828125	15886.966796875	11340.6025390625	5734.8642578125	10076.482421875	11660.283203125	14621.1982421875	10379.8369140625	9334.892578125	16295.474609375	15779.6552734375	14851.4462890625	14760.791015625	13146.2626953125	14611.7041015625	12917.7861328125	15171.1123046875	15397.3076171875	9245.55078125	16069.541015625	13381.2353515625	14795.3212890625	15235.48046875	15476.3642578125	14690.216796875	16054.283203125	16434.359375	15525.765625	16437.19140625	14019.78125	15937.318359375	14386.4033203125	15308.46484375	14531.787109375	15027.51953125	13808.6064453125	13832.8369140625	14531.107421875	14437.3486328125	14003.00390625	11586.1845703125	16101.4326171875	16606.220703125	15820.5224609375	14710.185546875	15014.7060546875	14577.0703125	13327.3154296875	15809.4150390625	12331.2255859375	15429.6845703125	15463.1416015625	10617.6162109375	15920.6572265625	13565.8154296875	14383.259765625	14566.5068359375	14932.5283203125	14301.3798828125	15548.859375	16638.158203125	16300.1064453125	15490.9423828125	14404.11328125	15613.1259765625	14455.4375	14470.40234375	14242.17578125	14425.2138671875	12612.9296875	12752.275390625	13590.453125	14565.619140625	15553.13671875	12729.5966796875	14953.8251953125	15933.689453125
1800	2100	14797.9189453125	12639.6455078125	10048.7041015625	12877.1435546875	12977.595703125	14443.8994140625	15911.103515625	9999.634765625	12525.240234375	13385.1103515625	12103.1591796875	10820.177734375	13823.322265625	11099.2939453125	14774.408203125	12372.208984375	9800.533203125	12129.7822265625	12340.365234375	14556.6904296875	15415.9013671875	12115.955078125	12769.078125	10276.7470703125	13379.9453125	11369.3544921875	5443.14697265625	10010.0478515625	10377.3095703125	12684.5810546875	10144.8876953125	8838.130859375	15207.5166015625	14665.53515625	14017.43359375	13924.232421875	11432.8193359375	13289.1337890625	12058.3271484375	13875.3798828125	14283.7021484375	8752.701171875	14827.759765625	12389.029296875	13442.1611328125	13954.5634765625	13359.8095703125	13709.1845703125	14744.521484375	15516.6396484375	14208.025390625	15016.1767578125	13237.984375	14996.5419921875	13537.216796875	14182.1259765625	13793.330078125	13879.8583984375	12464.7490234375	12330.931640625	13508.0205078125	13375.767578125	12758.9697265625	11640.2353515625	14686.2421875	15212.6044921875	14881.015625	13926.2060546875	14186.5	14102.9521484375	11279.92578125	14501.4794921875	11276.607421875	14039.2890625	14047.7744140625	9971.0625	14742.5146484375	13072.376953125	13031.484375	13353.908203125	12942.5498046875	13401.650390625	15039.078125	15786.1865234375	14678.021484375	14606.0341796875	13336.755859375	14595.1640625	13834.802734375	13700.0078125	13831.8017578125	13312.1884765625	11563.6015625	11767.6142578125	12660.0791015625	13404.005859375	13338.859375	12032.548828125	14282.81640625	14953.2861328125
2100	2400	14033.9892578125	12295.4580078125	8853.7529296875	11497.5341796875	11122.5751953125	13562.6865234375	14438.447265625	9265.76953125	10809.1181640625	11992.5166015625	10594.568359375	9664.4775390625	12651.8544921875	10342.24609375	14022.5458984375	12068.7626953125	9017.7099609375	10828.4853515625	11374.828125	13536.61328125	14511.7548828125	10489.728515625	11723.439453125	9921.615234375	12662.5673828125	10331.3330078125	5456.15673828125	9444.515625	8545.1083984375	11621.7998046875	9276.052734375	9034.1767578125	13527.4521484375	13349.4892578125	12555.9384765625	13951.8369140625	10565.2880859375	13335.435546875	11914.8984375	13982.75	13212.4912109375	9548.240234375	14432.5732421875	12494.4697265625	12277.3232421875	13554.0078125	12695.591796875	12488.0009765625	13752.2021484375	15318.3701171875	14550.0029296875	15805.2958984375	12256.578125	14336.28125	12128.109375	13682.52734375	12080.2861328125	13215.6328125	11292.0849609375	12841.2841796875	12052.0126953125	12572.1279296875	11127.0	9904.056640625	12815.833984375	14320.6259765625	13984.2783203125	13266.3388671875	12561.6181640625	12587.3232421875	11029.966796875	13766.6171875	11490.4521484375	13880.205078125	13097.5830078125	10275.861328125	14437.10546875	11968.78515625	12928.8115234375	13209.5517578125	12946.9716796875	12530.9990234375	13994.9150390625	14354.0791015625	14078.5107421875	13680.18359375	12673.3154296875	13570.376953125	12307.9150390625	12945.328125	13031.30859375	12491.755859375	11393.455078125	11954.14453125	12240.8720703125	12824.734375	14306.634765625	11013.255859375	13419.5830078125	13782.181640625
2400	2700	13449.0908203125	11403.6298828125	8269.96484375	10372.0068359375	10761.99609375	12400.001953125	14028.1484375	8472.5556640625	10348.873046875	10796.4306640625	10232.953125	9134.0361328125	11194.2587890625	9273.1328125	13485.7744140625	11242.716796875	8506.4189453125	10068.1982421875	10479.9814453125	13141.66796875	13532.33984375	9944.263671875	11016.298828125	9521.8828125	11173.4482421875	9748.1337890625	5317.326171875	9219.25390625	7933.30712890625	10518.642578125	9006.587890625	8796.91796875	13541.3984375	12575.513671875	12428.6474609375	13018.9267578125	9761.560546875	12400.505859375	11421.7373046875	13637.689453125	13452.0166015625	9180.87890625	13688.341796875	12298.3642578125	11637.2451171875	13071.4228515625	11635.216796875	12131.1826171875	13475.7587890625	14920.2890625	14063.8095703125	15339.2177734375	11834.1513671875	13049.193359375	11823.17578125	13046.8896484375	11416.7607421875	13092.642578125	10859.609375	12216.734375	11721.3876953125	12261.78515625	10436.6337890625	9291.1748046875	12748.01953125	13744.7080078125	13431.4814453125	12581.8330078125	12458.583984375	12227.76953125	10356.6220703125	13039.71484375	10726.5107421875	13065.8349609375	12920.5234375	9728.306640625	13741.7861328125	11641.328125	12462.9501953125	12597.513671875	11901.6689453125	12217.5205078125	13520.662109375	13756.0078125	13115.5654296875	13312.6015625	12279.0703125	13131.751953125	11998.1630859375	12321.533203125	12895.392578125	12042.8271484375	11027.947265625	11012.1044921875	11652.328125	12219.9228515625	13929.2314453125	10617.6962890625	13375.521484375	13429.2333984375
