frame_start	frame_end	Left-Cerebral-White-Matter	Left-Cerebellum-White-Matter	Left-Cerebellum-Cortex	Left-Thalamus	Left-Caudate	Left-Putamen	Left-Pallidum	Brain-Stem	Left-Hippocampus	Left-Amygdala	CSF	Left-Accumbens-area	Left-VentralDC	Left-choroid-plexus	Right-Cerebral-White-Matter	Right-Cerebellum-White-Matter	Right-Cerebellum-Cortex	Right-Thalamus	Right-Caudate	Right-Putamen	Right-Pallidum	Right-Hippocampus	Right-Amygdala	Right-Accumbens-area	Right-VentralDC	Right-choroid-plexus	AirCavity	Skull	Vermis	Pons	CSF-ExtraCerebral	Head-ExtraCerebral	ctx-lh-bankssts	ctx-lh-caudalanteriorcingulate	ctx-lh-caudalmiddlefrontal	ctx-lh-cuneus	ctx-lh-entorhinal	ctx-lh-fusiform	ctx-lh-inferiorparietal	ctx-lh-inferiortemporal	ctx-lh-isthmuscingulate	ctx-lh-lateraloccipital	ctx-lh-lateralorbitofrontal	ctx-lh-lingual	ctx-lh-medialorbitofrontal	ctx-lh-middletemporal	ctx-lh-parahippocampal	ctx-lh-paracentral	ctx-lh-parsopercularis	ctx-lh-parsorbitalis	ctx-lh-parstriangularis	ctx-lh-pericalcarine	ctx-lh-postcentral	ctx-lh-posteriorcingulate	ctx-lh-precentral	ctx-lh-precuneus	ctx-lh-rostralanteriorcingulate	ctx-lh-rostralmiddlefrontal	ctx-lh-superiorfrontal	ctx-lh-superiorparietal	ctx-lh-superiortemporal	ctx-lh-supramarginal	ctx-lh-frontalpole	ctx-lh-temporalpole	ctx-lh-transversetemporal	ctx-lh-insula	ctx-rh-bankssts	ctx-rh-caudalanteriorcingulate	ctx-rh-caudalmiddlefrontal	ctx-rh-cuneus	ctx-rh-entorhinal	ctx-rh-fusiform	ctx-rh-inferiorparietal	ctx-rh-inferiortemporal	ctx-rh-isthmuscingulate	ctx-rh-lateraloccipital	ctx-rh-lateralorbitofrontal	ctx-rh-lingual	ctx-rh-medialorbitofrontal	ctx-rh-middletemporal	ctx-rh-parahippocampal	ctx-rh-paracentral	ctx-rh-parsopercularis	ctx-rh-parsorbitalis	ctx-rh-parstriangularis	ctx-rh-pericalcarine	ctx-rh-postcentral	ctx-rh-posteriorcingulate	ctx-rh-precentral	ctx-rh-precuneus	ctx-rh-rostralanteriorcingulate	ctx-rh-rostralmiddlefrontal	ctx-rh-superiorfrontal	ctx-rh-superiorparietal	ctx-rh-superiortemporal	ctx-rh-supramarginal	ctx-rh-frontalpole	ctx-rh-temporalpole	ctx-rh-transversetemporal	ctx-rh-insula
0	30	3.4869461059570312	0.013673366978764534	1.2363569736480713	-3.2928261756896973	-10.206954002380371	-5.6596269607543945	6.096182823181152	4.717776775360107	2.645505905151367	-18.07217025756836	13.05410099029541	-17.972070693969727	4.860486030578613	-130.48828125	1.8566820621490479	6.415187358856201	-0.35123738646507263	1.6288846731185913	28.405420303344727	48.32736587524414	-4.8638739585876465	-10.13308048248291	-8.038596153259277	40.5455207824707	12.097794532775879	63.43670654296875	1.180619239807129	4.4403157234191895	-8.173478126525879	-2.8754830360412598	2.734717845916748	4.264945030212402	0.15152446925640106	-14.398089408874512	0.026617709547281265	-3.6828551292419434	15.324851989746094	-4.004817485809326	-1.4150691032409668	22.044967651367188	4.200659275054932	-1.1786997318267822	-6.801243305206299	-1.1478452682495117	-2.727513551712036	17.317577362060547	6.92009162902832	8.987556457519531	1.2202825546264648	-3.607569456100464	-6.167571544647217	5.837690830230713	3.4283664226531982	-8.136947631835938	14.677809715270996	-1.2639391422271729	8.950200080871582	-1.6619685888290405	3.7919180393218994	1.0285266637802124	13.794583320617676	-1.0738705396652222	-4.536043643951416	42.0512809753418	-11.702226638793945	9.44275188446045	-4.3190765380859375	4.160726547241211	4.509871959686279	-6.963159084320068	-21.325725555419922	9.745891571044922	3.7466089725494385	-2.7372281551361084	-9.271127700805664	-1.8112882375717163	4.113231182098389	-0.5396315455436707	7.272068977355957	7.382270812988281	-4.5932135581970215	16.8404598236084	-4.734417915344238	-2.5205986499786377	54.794979095458984	7.4915690422058105	5.69633674621582	1.1177512407302856	1.6112470626831055	13.504640579223633	-10.91756820678711	7.300374984741211	8.620504379272461	-1.7961256504058838	2.4511380195617676	-0.6698964834213257	-10.725239753723145	31.939897537231445	2.9270122051239014	-9.974958419799805
30	60	201.685302734375	446.7331848144531	668.4169921875	820.0249633789062	866.7158203125	1768.4876708984375	-31.197467803955078	767.1602783203125	1570.806396484375	1457.9300537109375	321.3197326660156	326.6601867675781	669.793212890625	269.6787109375	247.36180114746094	228.52926635742188	723.052001953125	882.658935546875	669.325927734375	868.974609375	533.5922241210938	757.85791015625	469.7825012207031	1216.548828125	568.4859008789062	1179.228515625	338.40679931640625	363.0313720703125	396.7335205078125	547.5106201171875	850.2941284179688	117.04196166992188	1256.255859375	1578.9564208984375	1152.46728515625	1198.9822998046875	-385.1556396484375	889.5969848632812	975.116943359375	908.62548828125	931.13623046875	769.3071899414062	1740.8985595703125	1351.1402587890625	2467.668212890625	911.5530395507812	576.1173706054688	1343.6964111328125	1714.470703125	1170.5238037109375	1343.0706787109375	1319.7366943359375	984.8312377929688	1286.1553955078125	922.9908447265625	1223.2017822265625	2869.17431640625	1240.8526611328125	1364.093994140625	680.4044189453125	1284.400146484375	1360.9979248046875	2430.875732421875	1296.6436767578125	2372.51025390625	2065.095947265625	884.5287475585938	1710.1322021484375	1169.2135009765625	1425.547119140625	-52.43879318237305	894.176513671875	827.5744018554688	734.8129272460938	929.1006469726562	607.154541015625	1432.039306640625	1017.6026000976562	1263.60107421875	769.9006958007812	2143.635986328125	1109.4307861328125	1398.5816650390625	1145.209716796875	1210.0321044921875	1509.8055419921875	1053.513671875	1368.6512451171875	1020.9627685546875	1423.7388916015625	1491.1419677734375	1143.2384033203125	1250.3463134765625	1057.344970703125	1425.501708984375	1073.6942138671875	1434.8221435546875	368.70904541015625	2218.8701171875	2095.346435546875
60	90	2278.7724609375	4196.23291015625	7909.171875	9934.4375	10937.8271484375	14355.435546875	2666.17724609375	7996.80126953125	8959.49609375	4837.5556640625	3969.92919921875	2585.37890625	7378.33203125	21551.51171875	2483.397705078125	3186.2705078125	7582.03076171875	9516.296875	11051.05859375	12122.759765625	5187.8427734375	8914.7080078125	8549.0517578125	14158.74609375	6453.6142578125	28915.140625	2725.162353515625	2154.987548828125	7791.46484375	5069.4033203125	5962.38720703125	893.345458984375	10799.0107421875	12156.1875	13592.4775390625	15195.087890625	6855.1220703125	12617.5322265625	9720.5888671875	10605.0185546875	10498.9375	10777.8427734375	14032.0830078125	12218.7490234375	14999.5576171875	9670.87109375	7662.02685546875	11470.8955078125	14258.5908203125	9999.2666015625	13964.9873046875	18163.10546875	11478.1123046875	11805.8046875	10586.8349609375	11129.705078125	15513.7724609375	11528.9755859375	12007.5400390625	10005.9931640625	11874.91796875	10380.5	15813.1201171875	5813.9423828125	14263.7451171875	13306.3818359375	12230.90234375	9569.3017578125	11875.7080078125	17120.93359375	6551.41748046875	9376.755859375	8433.224609375	10140.7978515625	11020.10546875	9498.513671875	16647.01171875	12153.9912109375	12676.41015625	10109.5166015625	9204.9599609375	10877.185546875	13053.6689453125	11583.94921875	12670.583984375	16083.4248046875	10136.4990234375	12706.7568359375	10129.763671875	12372.431640625	12058.2314453125	10980.6025390625	11872.4931640625	9990.7783203125	11311.6943359375	10329.529296875	15434.78125	2934.921142578125	20042.619140625	11403.6796875
90	120	3836.21435546875	7343.02880859375	13246.6982421875	16585.76953125	20166.484375	21896.64453125	6182.88037109375	12992.08984375	13833.7138671875	-1077.819580078125	6231.46142578125	8311.203125	12024.4541015625	50698.20703125	4182.82666015625	5882.56689453125	13816.5908203125	15787.16015625	22431.322265625	22549.068359375	5173.15234375	13961.2265625	5988.3623046875	-848.6909790039062	11320.861328125	52529.8515625	4623.578125	3235.688720703125	16746.48828125	7956.87451171875	7413.73193359375	1514.5841064453125	19196.15625	19713.791015625	21597.951171875	22753.888671875	11742.8505859375	20008.884765625	18498.34765625	21332.12109375	16258.5546875	17860.8671875	26202.642578125	20922.849609375	28738.224609375	17747.580078125	15098.2041015625	19562.4921875	24726.33984375	17996.935546875	21943.798828125	29684.08203125	22027.099609375	22910.033203125	19932.794921875	21024.166015625	23786.61328125	20938.275390625	21556.06640625	18224.9765625	20732.453125	19219.455078125	26258.953125	13167.4404296875	27305.19921875	21809.853515625	17527.267578125	19416.298828125	20337.154296875	27697.591796875	21946.20703125	15821.5927734375	16611.060546875	18514.330078125	16888.294921875	17226.943359375	28153.44921875	20163.6171875	27565.041015625	19420.234375	16253.857421875	19849.5703125	21909.6640625	16546.203125	21979.603515625	30166.306640625	19649.41015625	22025.06640625	19522.4375	19928.40625	25459.35546875	20915.30859375	20439.80078125	20193.931640625	19285.392578125	17769.833984375	26816.02734375	12397.919921875	29711.580078125	21117.1484375
120	150	5686.50439453125	9846.482421875	19335.4921875	25069.5234375	29792.171875	31008.779296875	8785.98046875	18231.765625	17774.8125	8781.5791015625	7908.90673828125	14697.7021484375	15228.0361328125	81841.546875	5719.5830078125	8272.533203125	19187.091796875	22719.166015625	28175.048828125	33658.1953125	9650.908203125	19993.232421875	15197.8828125	20583.791015625	15351.8994140625	66158.9140625	5861.4052734375	4161.9013671875	22996.34765625	13949.9775390625	9038.4931640625	2087.241455078125	25489.359375	26234.77734375	30383.607421875	29766.41015625	21679.2578125	26715.837890625	24523.375	30874.953125	19708.353515625	24618.48046875	36408.78125	27787.1875	39625.8828125	25493.43359375	23369.83984375	29297.82421875	34078.53515625	24150.5390625	30781.421875	40248.62109375	29742.47265625	28787.568359375	27436.2578125	29242.798828125	33456.51953125	29283.966796875	29489.7734375	27249.294921875	29387.763671875	26731.642578125	32129.1796875	17593.078125	32528.326171875	31038.380859375	26847.001953125	24401.83984375	29746.59375	35942.8125	29432.16015625	20778.34765625	24534.56640625	28559.759765625	26913.451171875	24918.69140625	40653.921875	27981.0859375	36934.96875	27712.576171875	19337.798828125	27626.791015625	31448.35546875	25147.134765625	29983.283203125	41926.78515625	28101.46484375	30886.6953125	27424.1953125	29936.09375	32497.48046875	29302.158203125	30395.0390625	27266.59375	26476.3359375	27314.8125	34401.7421875	17368.841796875	37884.203125	30596.23046875
150	180	6799.56005859375	11582.9716796875	23096.166015625	27992.0546875	36025.92578125	39123.12109375	10985.962890625	21039.90625	20136.33203125	20328.5390625	8896.33203125	3295.736083984375	18467.994140625	99222.015625	6826.9892578125	9536.9541015625	22716.845703125	26818.267578125	32302.265625	39932.609375	7897.166015625	22068.583984375	12582.728515625	28286.6015625	19340.662109375	94553.8046875	7198.517578125	4764.6123046875	31817.068359375	14220.4404296875	10200.119140625	2346.375	29673.77734375	32183.005859375	36893.51171875	36069.90234375	29478.935546875	32524.45703125	30446.60546875	37927.5625	24406.150390625	29715.943359375	42219.3046875	32744.953125	48276.01171875	30297.875	29254.607421875	33893.9609375	41171.8984375	27272.26171875	37513.62109375	47483.3515625	36055.06640625	32240.01171875	33176.33203125	35174.890625	40900.9921875	35733.12109375	34904.4921875	33997.7890625	36129.8359375	32373.185546875	46748.65625	20461.095703125	38063.4375	34443.4375	30280.265625	26819.873046875	36497.671875	41842.60546875	38820.078125	27116.654296875	28802.8515625	33876.69140625	28495.013671875	29933.685546875	48100.7421875	32921.8046875	42818.7578125	31766.02734375	20884.740234375	32441.841796875	37048.0078125	31066.08203125	35921.23046875	48947.90234375	33734.296875	35496.83203125	33094.9453125	34421.03515625	38525.140625	35497.16796875	36325.51171875	31952.279296875	32291.15234375	33162.1796875	42384.49609375	21624.056640625	37296.9765625	35215.20703125
180	240	8234.1953125	14081.9365234375	28113.728515625	35562.48046875	42924.953125	49070.05859375	14957.4833984375	25999.173828125	24417.58984375	13973.751953125	10682.79296875	22126.705078125	24511.783203125	103553.8359375	8218.115234375	12829.5771484375	27573.5546875	32596.22265625	40291.515625	49281.28515625	15138.384765625	26381.470703125	24863.296875	31389.267578125	22363.13671875	111630.59375	8300.3212890625	5610.6630859375	28163.86328125	17250.8515625	10696.8330078125	2855.457763671875	34712.07421875	35645.953125	43838.15625	40685.0234375	40744.1171875	39772.82421875	37803.51171875	47150.59765625	31047.759765625	35464.6484375	51341.10546875	40216.8203125	58313.109375	37618.7734375	34851.4296875	38448.5546875	48190.1953125	36350.82421875	45649.59765625	56667.07421875	43969.70703125	41067.25390625	41950.07421875	41964.95703125	47518.8359375	43251.140625	42478.3828125	39984.03515625	42936.3828125	38278.17578125	51006.71875	28853.208984375	47446.46875	43553.86328125	39809.25390625	38986.98828125	44224.1015625	50705.25	43622.66015625	33556.72265625	36495.4453125	41186.546875	34212.95703125	36770.328125	58445.6328125	39499.53125	55400.08203125	40743.85546875	31371.408203125	40588.94140625	46414.2109375	37815.0	44058.1640625	56385.5078125	42778.34765625	43231.68359375	39790.6953125	42022.390625	50568.3125	43903.84375	43655.06640625	40713.71875	40203.640625	38776.00390625	44646.671875	27052.240234375	47133.33203125	42306.99609375
240	300	9737.8603515625	16624.2734375	31697.861328125	39301.0	48532.109375	54953.96484375	16881.30078125	30319.0546875	26785.53515625	17558.80859375	10854.177734375	31838.37890625	26886.66015625	121917.9375	9843.63671875	15346.2578125	31298.6875	39545.30078125	46560.34375	54195.359375	15877.548828125	29799.845703125	21093.78125	43350.23046875	24880.224609375	123653.5	9227.2548828125	6253.35302734375	39440.05078125	21306.73046875	11419.13671875	3352.3984375	42607.7734375	41423.18359375	49454.390625	45133.265625	52057.76171875	45613.7265625	41638.4296875	55240.7734375	33411.10546875	40495.44921875	56153.51953125	43391.953125	67233.296875	42533.37109375	40678.74609375	40681.7265625	54178.97265625	36779.5625	52013.84765625	62554.75390625	50427.93359375	48421.59375	47280.84765625	48293.5	54502.26953125	48370.2265625	48508.79296875	46281.01953125	50269.5234375	44323.5859375	55149.9921875	31662.876953125	52932.9765625	50246.203125	43981.1796875	38721.33984375	50686.6640625	55228.453125	57056.515625	37086.6953125	41636.8046875	47931.05078125	37661.53125	41945.62890625	64167.90234375	44517.7109375	63541.30859375	46093.46484375	34139.171875	47354.10546875	49925.8671875	40793.74609375	49194.2421875	60553.44140625	46561.05859375	46712.1875	45070.27734375	46703.375	54883.5859375	50515.8671875	49553.125	45359.44140625	45397.77734375	44142.8046875	53491.12109375	33027.41015625	56015.4453125	49177.27734375
300	360	10689.13671875	17408.9453125	33257.75390625	42492.90234375	50282.6875	58753.38671875	18536.966796875	31369.716796875	27786.65234375	6357.0244140625	9792.5908203125	30141.14453125	27942.22265625	137615.375	10728.35546875	15607.2998046875	32145.666015625	40905.08984375	48636.34375	54293.4609375	21024.203125	30975.533203125	32706.54296875	37374.59375	26314.708984375	136015.9375	9676.0625	6591.3759765625	38794.16796875	19051.501953125	11083.5126953125	3652.5673828125	42782.04296875	45951.1015625	50363.8125	45459.99609375	62190.91015625	45696.83984375	43979.2109375	55648.17578125	34442.92578125	41680.41796875	58516.328125	45111.54296875	68466.1328125	44052.20703125	42735.0625	44760.41015625	55381.99609375	39370.9296875	53645.05078125	63242.36328125	52582.4921875	45994.02734375	48908.97265625	48944.9921875	56065.34375	50119.28125	48798.11328125	47401.08203125	52400.44921875	44450.578125	54807.58984375	36107.7421875	49444.98828125	51502.2265625	47127.56640625	42940.8828125	51788.5703125	54791.9765625	69798.2890625	37678.3515625	42894.47265625	47317.25	36304.828125	42897.11328125	65596.203125	44582.546875	69393.0625	47054.1875	36826.68359375	46226.33203125	49531.3203125	43729.328125	50062.46484375	60995.2890625	48849.9921875	49349.9375	46751.07421875	48937.74609375	56747.14453125	51137.10546875	51077.90625	47660.953125	47191.16796875	45390.1953125	55954.12890625	32630.7890625	51626.71875	50048.828125
360	480	11584.4072265625	18243.611328125	32619.427734375	43167.31640625	47815.1796875	55724.796875	20936.75390625	30916.994140625	28273.8671875	17735.392578125	10055.4970703125	36812.8671875	28999.302734375	99979.4765625	11742.3740234375	17545.345703125	31618.203125	41561.07421875	47880.32421875	55804.03515625	18168.56640625	32775.6484375	21574.802734375	50839.31640625	28126.0546875	101821.2734375	9443.4365234375	6870.90576171875	34169.58984375	20820.669921875	10305.8310546875	4101.93359375	40828.4296875	43769.4921875	51010.75390625	43641.71484375	66382.8828125	47208.6796875	43206.6875	55898.6875	34209.71875	39596.27734375	58656.015625	43053.4296875	66282.734375	44207.76953125	41054.21875	46990.984375	53773.08203125	36769.44921875	53163.76171875	60435.32421875	51815.78125	45855.8828125	47656.84765625	49090.80078125	57798.39453125	48880.6171875	48811.73046875	47677.2421875	51338.64453125	44576.31640625	55832.8515625	37770.1796875	48680.5546875	51034.484375	44686.703125	40593.84765625	51145.6875	55146.3828125	73529.0546875	37948.0859375	43027.40625	48965.66796875	35776.87890625	41233.984375	66233.0390625	43132.92578125	66584.265625	47846.703125	38127.8828125	48409.48046875	49124.27734375	41100.84375	49540.17578125	55942.3125	48720.078125	45172.0703125	46978.671875	46301.30078125	58688.45703125	50002.23828125	51128.375	46689.51171875	47146.70703125	44203.98828125	53568.10546875	37593.85546875	49302.23828125	48577.93359375
480	600	12343.5380859375	17592.541015625	30603.96875	41060.0390625	45361.24609375	54167.31640625	19235.908203125	30811.005859375	18209.8828125	26048.1640625	8073.32470703125	39538.640625	28392.63671875	102612.125	12277.6796875	17669.94140625	29388.548828125	40011.6484375	45118.5390625	49042.984375	22045.701171875	27127.6171875	25752.328125	41306.859375	28611.130859375	115699.21875	9342.0283203125	6972.212890625	33460.96484375	20452.63671875	9512.7841796875	4490.7939453125	35649.921875	37019.08984375	44557.88671875	38668.62109375	54204.8515625	44678.75390625	39865.2578125	50801.015625	31231.693359375	35171.82421875	52845.6640625	38237.51953125	62598.83984375	41199.91796875	41144.68359375	41019.84375	49702.4765625	34111.7109375	46860.39453125	51075.125	46766.25390625	40081.6953125	43626.43359375	43454.9375	51272.6640625	43235.8984375	44175.5234375	42563.31640625	48173.34765625	40227.92578125	50574.234375	38545.16015625	42305.12109375	46136.31640625	42742.515625	41819.75	45126.1015625	48930.28125	73969.671875	34904.296875	38879.125	44399.625	32594.474609375	37280.98046875	60284.00390625	38037.9296875	63871.82421875	44135.01171875	37989.5703125	43126.140625	44290.12109375	37599.96875	44371.38671875	48359.94921875	43218.0859375	40426.37890625	42319.33203125	40738.5703125	54805.1875	45196.75	46432.21875	41983.140625	42937.75	39539.87890625	48170.27734375	42189.9140625	40223.66796875	47302.95703125
600	900	12716.630859375	17585.95703125	24967.833984375	35264.609375	34505.1875	41404.97265625	21733.90234375	27045.572265625	17482.271484375	21646.76171875	5742.4619140625	31636.50390625	27209.279296875	81544.671875	12694.505859375	17294.8828125	24109.13671875	34288.0703125	34212.9765625	39758.69140625	20427.75	23736.140625	21784.765625	35455.97265625	26019.978515625	78068.5703125	8657.595703125	6885.4228515625	24287.33984375	19268.265625	7609.72998046875	4863.77587890625	29247.822265625	31255.921875	35405.10546875	29574.458984375	56772.83984375	35699.65625	31370.123046875	41429.89453125	25259.3203125	26852.203125	41825.55859375	29628.701171875	49554.40234375	34132.71484375	34789.93359375	31146.037109375	39358.64453125	27525.25390625	37048.9765625	37002.27734375	36879.13671875	32274.75	34896.94140625	33133.66796875	43311.1796875	35021.0390625	35318.36328125	33759.25	39517.70703125	32062.509765625	43511.94140625	38945.93359375	34180.1328125	38012.546875	32080.1328125	31201.80078125	35890.1171875	36408.19140625	62621.8671875	28656.578125	31514.05859375	36930.39453125	26051.564453125	29243.6640625	46367.4140625	30225.591796875	54950.94140625	35512.14453125	31651.11328125	33246.9375	35288.640625	29924.806640625	35654.58203125	34939.9140625	34524.859375	33533.98828125	33541.328125	31959.93359375	44587.9921875	36058.86328125	36608.67578125	33115.34375	35507.96484375	31156.41015625	36431.60546875	38662.49609375	29576.51953125	39848.8828125
900	1200	12856.7509765625	16615.259765625	18868.74609375	26480.55078125	25215.771484375	27296.4140625	22728.396484375	22245.060546875	12355.6484375	19807.451171875	3963.863525390625	26674.083984375	22825.140625	64763.22265625	12777.8662109375	17705.3359375	17855.880859375	27055.96875	23548.884765625	27695.259765625	21115.921875	16054.8349609375	14151.2958984375	28106.654296875	23118.20703125	52198.015625	7812.68994140625	6653.73486328125	16544.142578125	17152.4296875	5727.3779296875	5210.2578125	22237.2578125	25347.01953125	24990.630859375	21405.5703125	50912.99609375	27545.744140625	22565.736328125	30987.6640625	17860.435546875	19219.658203125	29459.107421875	22009.216796875	37133.578125	25665.11328125	26211.59765625	22150.890625	28185.232421875	17763.658203125	27916.015625	25486.740234375	26663.94140625	22946.681640625	25937.365234375	23546.724609375	31092.326171875	25678.806640625	25962.0859375	23911.48828125	29903.30859375	23413.142578125	28884.275390625	35297.1796875	26324.7421875	30316.611328125	23401.509765625	23859.794921875	26331.00390625	27131.380859375	49947.70703125	22161.63671875	22986.2265625	26796.126953125	18987.34375	21667.3671875	33643.58984375	22503.193359375	42751.64453125	27082.212890625	24511.578125	24045.359375	25295.77734375	21023.666015625	26869.818359375	24523.017578125	24617.205078125	23893.537109375	24288.13671875	22730.66015625	36078.015625	26844.5859375	27085.958984375	23706.47265625	27436.720703125	22801.958984375	21873.814453125	35072.15234375	22266.2109375	31259.576171875
1200	1500	12916.75390625	15423.052734375	15107.939453125	21970.517578125	18936.0078125	20992.345703125	21720.732421875	19352.74609375	11079.1884765625	14243.814453125	2972.25537109375	17643.486328125	20443.33203125	51106.1015625	12678.2255859375	16570.705078125	14342.4541015625	22038.5078125	19440.978515625	20155.470703125	18950.162109375	13957.107421875	16397.8671875	16710.7265625	20411.107421875	40906.38671875	7355.185546875	6565.36572265625	11663.681640625	16128.3115234375	4379.85546875	5532.1845703125	16955.52734375	20487.341796875	20704.62890625	16737.005859375	41128.875	22489.45703125	18402.69921875	26291.853515625	15864.6904296875	15827.986328125	24449.04296875	18958.357421875	31348.0859375	21375.216796875	22780.36328125	17415.595703125	24527.30859375	15476.5126953125	22721.259765625	21262.861328125	21380.087890625	19280.802734375	21121.06640625	18960.21484375	25421.9140625	21023.568359375	21282.9921875	20103.09375	25797.388671875	19206.125	26411.416015625	31186.224609375	22080.3515625	25448.994140625	19899.384765625	20460.1796875	22077.4921875	22626.13671875	40600.02734375	18821.9140625	19036.69921875	22180.5859375	16163.9228515625	18016.54296875	28190.005859375	18493.95703125	36874.73046875	22987.8125	20428.259765625	20245.236328125	20912.474609375	17858.90625	22346.42578125	20079.9453125	20561.689453125	20610.833984375	20011.08203125	18982.177734375	28942.796875	22361.373046875	22955.353515625	19837.177734375	23168.583984375	18919.41015625	17081.35546875	34308.74609375	18887.369140625	26645.400390625
1500	1800	12608.1220703125	14783.990234375	12749.935546875	17856.837890625	16005.8486328125	16768.3046875	19984.017578125	17216.630859375	9581.568359375	14497.1416015625	2755.81640625	10690.8056640625	19464.205078125	54395.171875	12696.1923828125	15588.3466796875	12174.671875	19238.427734375	16384.796875	15939.8876953125	18092.76171875	11589.6689453125	11254.662109375	8097.18310546875	18982.744140625	28559.2734375	7279.0224609375	6602.20703125	10328.927734375	14957.0732421875	3762.629150390625	5731.228515625	15133.4609375	19023.560546875	19169.1484375	15452.6025390625	36039.47265625	19778.314453125	16580.798828125	22994.28515625	14350.4267578125	14050.255859375	21415.87890625	16789.322265625	27805.7265625	19486.283203125	19538.623046875	15155.2724609375	20977.009765625	14031.24609375	20599.48828125	18405.59765625	19310.5234375	17191.9375	18429.701171875	16770.1015625	23239.81640625	18655.14453125	18649.265625	17315.830078125	23051.31640625	16805.439453125	21786.35546875	28489.095703125	20258.81640625	22055.8046875	17028.7265625	19004.978515625	18820.193359375	19953.94921875	38149.6953125	16729.388671875	16643.994140625	19038.73046875	14625.068359375	15879.9208984375	23893.154296875	16786.35546875	33505.6328125	19356.83203125	17469.4296875	16947.970703125	18363.57421875	16195.7685546875	18952.08984375	17985.9375	17528.44921875	19149.427734375	17302.38671875	16091.7265625	26884.2578125	19010.0078125	19821.162109375	17346.15625	20080.55859375	16194.4990234375	18752.79296875	30763.771484375	15471.056640625	23713.177734375
1800	2100	12414.7001953125	14244.9404296875	11142.203125	15689.025390625	12599.1826171875	13313.26171875	18591.9609375	15223.3828125	8586.767578125	10521.0595703125	2461.755615234375	7286.95458984375	16839.443359375	57686.40234375	12490.1572265625	14925.2060546875	10560.177734375	16163.427734375	13973.0185546875	13674.1865234375	16802.673828125	11597.39453125	11783.7666015625	855.3640747070312	15878.626953125	20603.904296875	6941.93798828125	6543.06689453125	8100.08251953125	13555.5869140625	3354.399658203125	5920.93505859375	14727.744140625	17755.845703125	17483.576171875	14729.57421875	36929.203125	19309.306640625	14473.4482421875	20200.193359375	12458.205078125	13049.44921875	19921.88671875	15721.8974609375	25253.982421875	17896.775390625	16876.6171875	13568.3466796875	19400.96875	12483.6123046875	18811.849609375	16638.822265625	16626.734375	15768.458984375	16495.65625	14858.2119140625	20600.34375	16828.5859375	16883.822265625	15817.7421875	20305.158203125	15286.609375	21255.166015625	26376.51171875	19420.7890625	19523.853515625	14871.55078125	16602.658203125	17327.13671875	17435.40234375	29962.376953125	14718.6943359375	14943.1787109375	18195.16015625	13517.984375	14451.724609375	21904.685546875	15974.271484375	30232.630859375	17381.859375	15863.296875	14211.9453125	17051.421875	15062.703125	16914.9921875	15968.755859375	15366.3642578125	16965.6953125	15513.0576171875	14651.72265625	24245.849609375	17486.66015625	17719.38671875	15499.623046875	17880.345703125	14990.9775390625	12854.515625	29588.9609375	16031.125	20914.5390625
2100	2400	12102.3662109375	13227.83984375	9810.203125	13239.4580078125	11174.73828125	11525.28125	16559.173828125	13818.71484375	8674.201171875	10642.0849609375	2242.431396484375	8957.8486328125	14632.9990234375	35916.45703125	12110.1044921875	14383.4287109375	9254.599609375	14302.60546875	12611.3544921875	11788.2958984375	15620.6611328125	10323.083984375	10890.45703125	-3386.04150390625	14881.638671875	20232.529296875	6922.06494140625	6464.66943359375	7493.03857421875	12662.4541015625	3221.120361328125	6062.4990234375	12871.0224609375	17090.5390625	14692.892578125	12687.5810546875	27779.021484375	16968.466796875	13900.3046875	19929.826171875	11169.0205078125	12074.4912109375	17411.625	14364.81640625	22226.572265625	16053.642578125	15192.525390625	11824.8125	18541.037109375	11270.4130859375	16949.908203125	16552.220703125	15067.4306640625	14548.712890625	14722.2158203125	13931.75390625	18128.00390625	15688.40625	15254.927734375	13914.4130859375	19317.701171875	14248.5693359375	21164.173828125	22797.4296875	17870.54296875	17321.75	13531.359375	14631.2919921875	15229.8671875	16438.46875	26807.2890625	14493.9130859375	13663.0068359375	15665.3173828125	13290.9111328125	13327.5498046875	20408.87890625	14352.923828125	28227.81640625	15648.94140625	11946.3564453125	14238.9990234375	15670.7783203125	12695.5048828125	16000.8427734375	15757.681640625	14065.4833984375	15116.9619140625	13727.24609375	13181.7880859375	21337.708984375	15649.1669921875	16287.224609375	14202.1162109375	16267.0478515625	13216.203125	14738.2919921875	26817.197265625	15191.171875	19628.423828125
2400	2700	11716.40625	12191.263671875	8755.896484375	12151.9453125	10069.740234375	10876.9638671875	13306.7109375	12790.021484375	6348.39404296875	7541.2724609375	1990.573974609375	4536.77294921875	13769.8017578125	36308.08984375	11714.11328125	13585.4658203125	8420.8994140625	12614.1337890625	11759.2529296875	9700.685546875	14518.173828125	7757.42529296875	10829.8212890625	174.83494567871094	13544.11328125	24972.67578125	6753.32666015625	6440.98193359375	7591.2529296875	11780.736328125	3122.22119140625	6086.46484375	11201.2275390625	15955.48046875	13834.2568359375	12502.5712890625	33154.140625	15866.3193359375	12540.28125	17741.990234375	9995.6201171875	10879.9111328125	16904.66796875	13443.865234375	21176.216796875	15004.1513671875	13285.861328125	11102.3818359375	16651.69921875	11815.05078125	15679.896484375	14467.025390625	14428.98046875	14059.796875	13883.173828125	11796.22265625	19243.9609375	14272.08984375	13988.7900390625	13343.1171875	17556.8984375	13307.4453125	16127.5546875	22995.7109375	15240.51171875	16669.306640625	13012.7197265625	15554.173828125	13947.66015625	14828.5771484375	22009.208984375	13559.7353515625	12693.451171875	14646.166015625	12298.484375	12119.13671875	17995.123046875	14235.01953125	26072.783203125	14879.9716796875	11290.525390625	12307.2568359375	15474.3271484375	12705.1103515625	14641.73046875	14116.849609375	13271.158203125	13614.400390625	12702.640625	12325.837890625	20420.236328125	14808.390625	14901.701171875	13085.83984375	15224.5947265625	12284.1376953125	10148.72265625	22930.921875	14113.54296875	17202.779296875
