frame_start	frame_end	Left-Cerebral-White-Matter	Left-Cerebellum-White-Matter	Left-Cerebellum-Cortex	Left-Thalamus	Left-Caudate	Left-Putamen	Left-Pallidum	Brain-Stem	Left-Hippocampus	Left-Amygdala	CSF	Left-Accumbens-area	Left-VentralDC	Left-choroid-plexus	Right-Cerebral-White-Matter	Right-Cerebellum-White-Matter	Right-Cerebellum-Cortex	Right-Thalamus	Right-Caudate	Right-Putamen	Right-Pallidum	Right-Hippocampus	Right-Amygdala	Right-Accumbens-area	Right-VentralDC	Right-choroid-plexus	AirCavity	Skull	Vermis	Pons	CSF-ExtraCerebral	Head-ExtraCerebral	ctx-lh-bankssts	ctx-lh-caudalanteriorcingulate	ctx-lh-caudalmiddlefrontal	ctx-lh-cuneus	ctx-lh-entorhinal	ctx-lh-fusiform	ctx-lh-inferiorparietal	ctx-lh-inferiortemporal	ctx-lh-isthmuscingulate	ctx-lh-lateraloccipital	ctx-lh-lateralorbitofrontal	ctx-lh-lingual	ctx-lh-medialorbitofrontal	ctx-lh-middletemporal	ctx-lh-parahippocampal	ctx-lh-paracentral	ctx-lh-parsopercularis	ctx-lh-parsorbitalis	ctx-lh-parstriangularis	ctx-lh-pericalcarine	ctx-lh-postcentral	ctx-lh-posteriorcingulate	ctx-lh-precentral	ctx-lh-precuneus	ctx-lh-rostralanteriorcingulate	ctx-lh-rostralmiddlefrontal	ctx-lh-superiorfrontal	ctx-lh-superiorparietal	ctx-lh-superiortemporal	ctx-lh-supramarginal	ctx-lh-frontalpole	ctx-lh-temporalpole	ctx-lh-transversetemporal	ctx-lh-insula	ctx-rh-bankssts	ctx-rh-caudalanteriorcingulate	ctx-rh-caudalmiddlefrontal	ctx-rh-cuneus	ctx-rh-entorhinal	ctx-rh-fusiform	ctx-rh-inferiorparietal	ctx-rh-inferiortemporal	ctx-rh-isthmuscingulate	ctx-rh-lateraloccipital	ctx-rh-lateralorbitofrontal	ctx-rh-lingual	ctx-rh-medialorbitofrontal	ctx-rh-middletemporal	ctx-rh-parahippocampal	ctx-rh-paracentral	ctx-rh-parsopercularis	ctx-rh-parsorbitalis	ctx-rh-parstriangularis	ctx-rh-pericalcarine	ctx-rh-postcentral	ctx-rh-posteriorcingulate	ctx-rh-precentral	ctx-rh-precuneus	ctx-rh-rostralanteriorcingulate	ctx-rh-rostralmiddlefrontal	ctx-rh-superiorfrontal	ctx-rh-superiorparietal	ctx-rh-superiortemporal	ctx-rh-supramarginal	ctx-rh-frontalpole	ctx-rh-temporalpole	ctx-rh-transversetemporal	ctx-rh-insula
0	30	6.659418106079102	27.577159881591797	4.8847174644470215	6.540918827056885	1.1605342626571655	3.704507350921631	-5.773886680603027	3.9946208000183105	13.701327323913574	-4.175678730010986	4.490309715270996	-3.023743152618408	-6.804591178894043	-24.472888946533203	5.518223285675049	22.379911422729492	10.03482437133789	6.104286193847656	9.963274955749512	40.89176940917969	-13.793188095092773	4.400876045227051	56.416175842285156	-4.594841957092285	-0.38254910707473755	82.89007568359375	2.4804389476776123	7.620615482330322	-9.03722858428955	15.134010314941406	8.11372184753418	7.091715335845947	6.296390056610107	-1.3741697072982788	1.1790814399719238	17.128829956054688	-13.579279899597168	14.063458442687988	0.948710560798645	13.280486106872559	9.389389038085938	-2.4149951934814453	-1.8627511262893677	18.347381591796875	4.828233242034912	1.599390983581543	11.048554420471191	-7.22878885269165	1.9475531578063965	-4.201183795928955	0.6844499111175537	-28.414081573486328	-4.418395042419434	13.937397003173828	2.2477333545684814	-3.3636577129364014	-4.7317938804626465	8.499238967895508	3.4687349796295166	6.672419548034668	17.18262481689453	6.1795454025268555	13.612401962280273	-13.828022003173828	-15.186444282531738	6.4391889572143555	23.733840942382812	-10.102676391601562	13.846285820007324	-8.430904388427734	29.604522705078125	10.436355590820312	12.679405212402344	42.609771728515625	18.230871200561523	-6.523000240325928	12.66134262084961	-3.7232961654663086	9.959939956665039	10.498383522033691	-3.4465129375457764	-1.2968451976776123	77.84031677246094	-8.43551254272461	9.537301063537598	-3.307363271713257	47.87015151977539	-5.26572322845459	-5.85028600692749	1.8076064586639404	-4.848816871643066	5.9187140464782715	1.0482375621795654	-1.0319781303405762	24.819198608398438	-0.6786082983016968	16.65997314453125	25.95806121826172	39.97285461425781	16.267780303955078
30	60	955.72119140625	1446.6893310546875	2065.27783203125	2166.668701171875	2525.694091796875	2835.776611328125	3860.349853515625	1685.727294921875	2789.5166015625	1657.925537109375	1341.67041015625	4457.63671875	2456.578857421875	7326.30859375	1120.1434326171875	1413.68017578125	1708.3258056640625	2207.331787109375	1782.234619140625	2588.566162109375	2941.099853515625	1348.79150390625	2099.377197265625	9076.9384765625	3063.899169921875	6918.9833984375	-15.04870319366455	804.37060546875	2262.987548828125	1701.0933837890625	2544.923583984375	606.8367309570312	2144.54931640625	3596.763427734375	2710.046142578125	3238.0751953125	6007.31298828125	2061.65966796875	2663.746826171875	2196.879638671875	979.9508056640625	2452.020751953125	2328.21044921875	2701.90966796875	2976.819091796875	2611.728271484375	490.67474365234375	3258.06640625	4005.57177734375	1223.3758544921875	2838.68359375	6351.611328125	3316.42626953125	3603.388427734375	3284.25390625	3372.577880859375	2974.443115234375	3393.4765625	2955.435791015625	2454.193115234375	2759.5263671875	3947.14306640625	336.2113037109375	-461.96514892578125	3819.876708984375	5144.18994140625	3890.84228515625	1915.1015625	3213.15087890625	4149.3544921875	6652.23876953125	1565.707275390625	2606.975830078125	1872.12158203125	2044.4676513671875	2714.9375	2300.83984375	2007.6710205078125	2387.09326171875	1575.90283203125	1893.0943603515625	2166.813720703125	4232.29638671875	701.2225341796875	2661.389892578125	2946.955810546875	2676.515380859375	1913.4468994140625	2742.429931640625	2438.674072265625	3599.192138671875	2619.537109375	3049.74462890625	2268.49462890625	2210.629150390625	4066.343017578125	-24.666866302490234	1378.9168701171875	5677.31298828125	4183.88818359375
60	90	4291.7421875	7018.21337890625	10841.6943359375	11132.814453125	14763.08203125	16848.375	11706.7587890625	6709.744140625	11864.5791015625	7756.857421875	7449.90576171875	16196.4453125	8429.4716796875	39710.1953125	5060.220703125	7025.5439453125	10115.9248046875	11061.1220703125	14643.9951171875	15455.0341796875	13115.677734375	10112.59765625	9295.3046875	17611.439453125	8388.89453125	24790.265625	-20.319440841674805	3118.0576171875	11822.751953125	7999.7333984375	9936.1953125	2642.56494140625	11644.69140625	15322.6708984375	16694.6953125	23436.421875	10197.0048828125	12429.865234375	14506.0478515625	11701.017578125	8784.1923828125	15161.1083984375	11477.6484375	16391.720703125	12198.2861328125	14657.1904296875	2247.01708984375	17715.9921875	19206.7421875	6600.9443359375	16258.5302734375	30900.775390625	16401.486328125	12379.8408203125	15974.951171875	17320.248046875	16263.2626953125	17312.255859375	16014.642578125	13746.634765625	13027.7734375	18030.103515625	205.97032165527344	2245.097412109375	20404.6640625	16274.5439453125	15519.1259765625	5130.458984375	16015.75	21091.310546875	16025.5087890625	9311.1171875	14692.474609375	10041.994140625	7530.74951171875	16131.2138671875	9667.005859375	14150.0283203125	12268.2431640625	9617.9990234375	8040.65966796875	12594.056640625	17133.23046875	6209.734375	16009.7314453125	22513.416015625	14566.1181640625	7239.45849609375	14244.7109375	14830.9560546875	17192.494140625	14681.134765625	15366.7041015625	14279.0615234375	11676.296875	16529.564453125	497.96954345703125	6965.09814453125	19069.408203125	14972.7392578125
90	120	8178.9560546875	13552.697265625	20592.1484375	21818.04296875	29439.572265625	31223.775390625	19677.67578125	11576.9833984375	20362.353515625	16563.47265625	12727.1162109375	22561.541015625	12093.6103515625	69514.390625	9439.5498046875	12475.4345703125	19036.984375	21769.623046875	28434.3828125	27400.0	20970.439453125	18089.814453125	15898.201171875	33768.9609375	14270.9208984375	52698.70703125	-73.87448120117188	5667.26171875	22740.1796875	13895.26171875	16996.71875	4685.6015625	24479.564453125	26206.373046875	29846.46484375	40973.40625	14070.703125	23671.427734375	26616.521484375	21567.0078125	12937.8154296875	29557.90625	19300.59765625	28825.068359375	21536.568359375	25484.748046875	6642.19580078125	29124.76953125	34217.22265625	12398.3681640625	33884.234375	60098.625	30538.01171875	22779.08203125	29928.521484375	34963.75	33140.91796875	31547.353515625	30606.349609375	25905.197265625	25451.990234375	32064.470703125	1321.7308349609375	4504.392578125	37105.1015625	26946.255859375	28372.13671875	9939.3466796875	30262.0625	38265.05078125	24974.591796875	18021.83203125	28769.287109375	17183.791015625	16496.205078125	29482.26953125	17390.8046875	27982.60546875	22131.390625	18594.544921875	11159.7763671875	22422.15625	28416.84375	10851.3662109375	30879.263671875	38387.16796875	27421.1328125	17778.904296875	27915.9375	27281.396484375	30853.849609375	27609.6796875	29183.33203125	26659.38671875	21394.9609375	31847.44921875	1764.1427001953125	11158.1064453125	31822.080078125	26594.876953125
120	150	11519.453125	19202.16796875	28682.9765625	30613.3671875	38766.4375	43820.6015625	26475.484375	16563.689453125	28115.501953125	18052.02734375	17186.888671875	26290.19921875	13763.1748046875	100732.6484375	13050.4892578125	18311.462890625	26818.521484375	30822.505859375	41764.58984375	42174.84375	26339.0078125	28812.482421875	19796.705078125	30876.71875	14916.005859375	81731.9453125	-229.13641357421875	7364.6201171875	32421.4921875	18277.05078125	22519.583984375	6223.2724609375	33353.38671875	31518.185546875	42880.3671875	56476.46484375	15637.9501953125	32248.67578125	37712.140625	29910.13671875	16658.193359375	42870.80859375	26239.806640625	43943.26171875	28511.9140625	37219.2265625	6944.78857421875	40649.0234375	48397.16796875	17709.673828125	45725.55859375	80563.5	44622.0078125	31287.998046875	41715.78125	49231.96875	45530.74609375	44994.71484375	43252.41015625	38446.09765625	33788.05078125	45152.03125	1322.731201171875	8217.9013671875	52165.015625	34419.66796875	41520.828125	12401.1796875	42866.265625	55243.3359375	22902.16796875	26080.201171875	39967.171875	25835.673828125	21097.4921875	42201.140625	21351.5859375	36125.6640625	30342.015625	27025.75390625	13705.662109375	29071.9296875	39573.7109375	16350.3662109375	43197.609375	55952.30859375	39412.625	24273.798828125	37878.48046875	38772.13671875	45031.58203125	39112.04296875	39644.38671875	38691.359375	30196.216796875	42986.1171875	3030.949462890625	18535.802734375	54466.109375	33188.9375
150	180	12933.8125	21212.609375	31066.400390625	34634.96875	45049.453125	48838.35546875	30532.8984375	15914.8125	31351.8046875	22196.923828125	18087.494140625	30240.068359375	12505.3203125	89043.625	14419.369140625	21334.236328125	29232.388671875	34030.8046875	46238.99609375	42365.625	27372.896484375	32111.51953125	23051.560546875	29623.2890625	14042.689453125	81976.8984375	-320.3106384277344	7943.9228515625	37547.29296875	19290.376953125	23393.181640625	6676.55859375	37191.31640625	34639.5703125	44228.38671875	64994.28125	10140.65625	37006.31640625	42202.5703125	33220.296875	15356.666015625	47675.984375	27054.796875	45794.828125	29831.87109375	40950.6015625	11198.529296875	46061.5625	52488.59765625	20367.0625	49162.78515625	93178.703125	48464.70703125	32838.63671875	45528.40625	52517.16796875	46368.94140625	48955.68359375	46448.828125	43702.73046875	36613.0234375	49917.96875	-1114.5811767578125	11868.9033203125	57716.125	34331.7734375	44796.33203125	9645.2548828125	46211.03125	63577.57421875	20763.814453125	28547.845703125	44811.62109375	28447.630859375	17337.607421875	45490.62890625	23995.580078125	40247.96875	32866.53515625	29263.88671875	14453.06640625	35922.2578125	44178.81640625	16408.390625	46056.265625	59697.40625	43307.203125	25852.529296875	42459.13671875	43199.34765625	53510.05859375	42793.5234375	44675.26953125	41017.20703125	32326.609375	46462.80859375	1224.1580810546875	19633.068359375	52677.1875	37215.42578125
180	240	12821.46875	20925.59375	32273.185546875	34991.1484375	46140.21484375	47402.7734375	29329.71875	17179.96484375	29819.53125	23997.111328125	16316.0166015625	25574.890625	13379.9228515625	92097.625	14500.3818359375	19622.421875	30256.806640625	34036.06640625	45157.94140625	44772.58984375	28001.12890625	32095.078125	23343.716796875	31877.177734375	13604.2978515625	91029.140625	-563.2861328125	7915.0634765625	38023.19140625	20626.74609375	21829.142578125	6785.71435546875	38434.2265625	33552.83203125	47021.50390625	61628.95703125	10692.4521484375	36538.2109375	43238.64453125	33762.13671875	16904.365234375	48804.796875	26663.048828125	47077.234375	30422.216796875	41389.9921875	9041.9443359375	45257.01171875	49161.046875	19400.13671875	50151.65625	89487.640625	49781.734375	33457.66015625	44860.015625	53177.01171875	49059.78125	48623.546875	46653.828125	43638.5234375	37777.62109375	49129.54296875	2741.287109375	11195.9365234375	55546.50390625	34413.53125	43411.39453125	11452.1513671875	45567.69140625	62087.25390625	21482.439453125	28751.546875	44624.78515625	28689.92578125	17391.04296875	46553.0703125	23866.216796875	39820.08203125	31886.462890625	30883.29296875	15128.2783203125	37351.3984375	42080.71875	19513.125	46705.796875	60109.9375	44602.2734375	26056.142578125	41423.46875	42479.15625	46499.94140625	42056.95703125	44190.60546875	43588.18359375	32323.826171875	45901.453125	4050.937744140625	20230.43359375	43577.40234375	36492.73046875
240	300	12946.8125	20935.662109375	31062.484375	34319.85546875	46129.86328125	45983.03125	27568.5390625	17068.26953125	28382.20703125	23050.193359375	14684.98828125	25217.2421875	12299.7763671875	88258.5234375	14385.1396484375	20056.40625	28961.083984375	35536.8203125	44236.3359375	44241.13671875	26505.26953125	30046.552734375	22033.5	25400.423828125	13201.451171875	81355.28125	-568.7666625976562	7840.12939453125	35509.828125	20238.779296875	19624.451171875	6930.57763671875	38288.05078125	32385.880859375	43706.18359375	58688.56640625	10014.3876953125	35936.00390625	41361.24609375	32048.666015625	14896.6689453125	44100.73828125	26296.01171875	43636.61328125	30488.1015625	40269.25390625	11786.19140625	43593.421875	47709.15625	20398.123046875	47017.69140625	81981.578125	46218.67578125	28461.419921875	42053.625	50194.64453125	44338.1953125	45818.05859375	43967.76953125	41467.1328125	36326.88671875	46249.64453125	497.2108459472656	14873.0888671875	52542.09375	32688.751953125	40386.578125	12434.013671875	44134.17578125	58404.79296875	22285.392578125	27346.46484375	43252.046875	28217.91796875	22409.66015625	44297.60546875	22766.515625	37007.65625	30670.46484375	30141.72265625	17644.333984375	32933.52734375	40277.39453125	19819.513671875	43717.93359375	57096.1015625	44221.859375	27665.365234375	39300.359375	40760.8671875	45705.796875	40432.67578125	42340.93359375	42758.67578125	33156.27734375	42523.6328125	6825.1474609375	19040.8046875	45438.85546875	35059.01171875
300	360	12372.4013671875	19294.4453125	30022.779296875	34788.6953125	42968.0	44173.19140625	27248.009765625	17665.880859375	28051.609375	24343.318359375	12294.43359375	26079.685546875	13078.6025390625	74282.203125	13573.40625	18846.6953125	28326.703125	34861.27734375	43677.29296875	40725.125	24906.13671875	27894.744140625	22953.26953125	25360.814453125	13668.271484375	75360.6484375	-348.0954284667969	7581.27197265625	31932.13671875	20083.859375	16992.75	6943.232421875	37414.6328125	31685.017578125	40458.15625	53581.03125	11828.025390625	33474.015625	38544.58984375	31177.48046875	16013.2763671875	42528.42578125	25236.826171875	39701.5859375	27303.552734375	37909.8359375	13571.720703125	41783.3125	43015.94921875	21135.71875	43788.8671875	75543.1484375	42821.00390625	31068.208984375	41355.55859375	46115.53515625	43356.5859375	43438.828125	41606.265625	41049.4453125	35117.66796875	42815.00390625	6269.70947265625	15568.8056640625	45664.1953125	32510.19140625	39324.21875	16265.2578125	41341.28515625	52655.375	19501.474609375	28121.8359375	41495.34765625	27896.853515625	18522.205078125	42002.15234375	22624.47265625	36595.12109375	28023.873046875	29918.689453125	15569.7548828125	34273.69921875	37056.73828125	20591.24609375	41488.67578125	54555.0703125	39532.12890625	26249.73046875	37989.3359375	39156.41015625	40230.26953125	38553.71484375	39369.0859375	39891.41796875	31245.884765625	39140.5546875	9752.85546875	21911.4921875	42770.296875	34392.57421875
360	480	12209.310546875	19017.27734375	27831.111328125	33101.1484375	41181.71484375	41034.6796875	25854.95703125	17797.3359375	26765.830078125	21167.919921875	8725.4140625	23996.68359375	13431.0390625	68381.265625	12996.5400390625	17358.197265625	26633.83203125	33857.421875	42085.58984375	38296.5	25542.478515625	26838.048828125	23794.759765625	22888.501953125	13928.40234375	63859.0625	-253.77197265625	7487.61474609375	29308.017578125	19280.828125	13821.0751953125	7246.369140625	33065.5859375	28430.640625	38007.953125	45260.078125	15334.4296875	31366.31640625	35105.03515625	28941.4609375	17947.5625	37389.2109375	24397.703125	36279.79296875	26510.197265625	35581.8046875	11670.640625	35843.16796875	37916.3671875	23240.556640625	38339.59765625	61415.5078125	38505.13671875	28194.205078125	36557.4609375	41266.4765625	36136.65234375	39109.87109375	37653.25	37068.51953125	32523.7890625	38070.73828125	8550.935546875	16796.158203125	40674.1015625	29843.255859375	33884.6171875	16729.005859375	36716.3828125	45300.39453125	21836.650390625	25548.73046875	37991.96875	26914.787109375	21200.046875	38111.41796875	22405.876953125	32691.302734375	27125.2109375	28593.388671875	17413.62890625	30501.203125	30678.12109375	21377.4296875	38265.625	45880.76953125	37109.09765625	27039.498046875	34621.87890625	35407.62890625	36321.3671875	35140.0703125	35982.5234375	37545.67578125	29737.544921875	35781.41796875	10132.0126953125	21280.654296875	34894.6640625	31089.767578125
480	600	11712.49609375	17445.85546875	24926.322265625	30526.740234375	36223.109375	35514.32421875	24965.845703125	17801.58984375	21884.390625	22407.14453125	5419.91943359375	23555.111328125	14487.3583984375	47507.8515625	12235.0068359375	16747.58984375	23666.763671875	32385.552734375	37518.8515625	34289.22265625	22259.392578125	22935.171875	24292.458984375	20538.376953125	13277.9150390625	56029.93359375	-269.2189025878906	7344.583984375	25203.5078125	18255.72265625	9936.7412109375	7377.59765625	29089.673828125	25412.453125	32559.9609375	37756.32421875	17208.78125	27118.029296875	30337.931640625	26387.04296875	16401.77734375	30370.64453125	22339.189453125	29857.10546875	23935.3515625	30157.603515625	13822.92578125	31205.873046875	31540.4453125	22050.25390625	32805.53125	48352.30859375	33195.94921875	25183.36328125	30946.62109375	34935.375	32991.83203125	32981.78125	31934.689453125	32909.9140625	28773.431640625	31830.11328125	10262.4248046875	17365.853515625	36080.12890625	26145.763671875	29738.517578125	17847.443359375	31683.26171875	35792.6875	23248.994140625	23781.990234375	33110.12890625	24912.693359375	20183.220703125	31780.443359375	20676.73046875	25240.689453125	25282.287109375	25471.65234375	17134.927734375	27024.447265625	26491.81640625	20692.287109375	33639.2890625	37086.88671875	30913.224609375	25590.912109375	30151.1953125	30332.26953125	29114.251953125	30734.13671875	31117.697265625	32632.94140625	26559.591796875	30046.744140625	11457.6025390625	22049.302734375	27834.904296875	27161.251953125
600	900	11408.1962890625	17408.146484375	19673.88671875	26418.951171875	28480.9765625	29058.99609375	21044.669921875	15970.3505859375	18760.623046875	20987.443359375	2397.182861328125	17497.64453125	15077.5654296875	29182.177734375	11476.529296875	15709.6806640625	19515.27734375	27081.65234375	28221.814453125	26543.22265625	21543.794921875	18699.779296875	20306.955078125	19855.91796875	15424.5458984375	38570.6875	-286.41326904296875	7270.38134765625	19066.025390625	16479.4296875	6112.05224609375	7397.8876953125	22480.30078125	22140.693359375	26629.697265625	26839.72265625	17886.791015625	21585.32421875	23628.4296875	22615.17578125	16128.146484375	23546.400390625	19099.294921875	22776.9140625	20965.615234375	23891.1171875	13624.6083984375	22742.935546875	23827.052734375	20114.97265625	24916.876953125	31411.240234375	25150.025390625	21415.14453125	24264.607421875	25966.505859375	23948.578125	25808.005859375	24761.45703125	25722.8046875	23288.181640625	24502.21484375	16845.501953125	19257.41015625	25852.447265625	22387.318359375	23063.765625	17600.0859375	25440.91796875	26723.837890625	21766.232421875	19483.513671875	25936.8984375	21038.15625	18174.828125	25486.287109375	18468.154296875	21679.134765625	21196.41015625	21781.99609375	14533.2802734375	22014.513671875	21242.759765625	19469.3671875	25478.93359375	27551.01953125	24691.16015625	20836.42578125	24131.896484375	23750.74609375	22512.990234375	24877.40234375	24504.619140625	26575.671875	21851.888671875	23309.6875	14224.783203125	20428.8359375	23317.826171875	22805.654296875
900	1200	11459.482421875	16751.484375	14811.759765625	20905.169921875	20866.486328125	20827.25	20104.560546875	13721.009765625	13937.712890625	18055.099609375	291.6271667480469	15900.982421875	15671.380859375	15481.0126953125	11287.95703125	15462.8095703125	15008.8310546875	21696.921875	19999.9453125	19653.85546875	19746.720703125	14875.7734375	17142.06640625	17633.91796875	15159.0673828125	21186.376953125	-184.1634521484375	7452.55322265625	12985.9443359375	16052.7880859375	3913.73291015625	7589.70263671875	17422.595703125	16939.05859375	19087.09765625	20078.59765625	17121.72265625	16593.578125	16829.349609375	17627.486328125	13470.7978515625	16897.95703125	15304.5478515625	17260.712890625	16884.865234375	17820.38671875	10827.9423828125	16248.9208984375	16493.46484375	16564.75390625	17448.505859375	19277.138671875	17781.05859375	17482.9453125	17935.06640625	18743.533203125	17197.068359375	18995.02734375	18021.9140625	19181.076171875	17452.841796875	17322.197265625	18150.84765625	17287.439453125	20498.798828125	16993.767578125	15905.48046875	17325.611328125	18033.095703125	19251.73046875	19408.525390625	15731.9169921875	19463.0546875	16779.224609375	16587.474609375	19491.810546875	14919.9248046875	15730.7216796875	16060.3359375	16959.474609375	12590.5927734375	16845.92578125	15355.8603515625	16443.5	18256.2265625	19799.685546875	17772.345703125	17846.49609375	18669.671875	17643.900390625	15225.53515625	19407.4921875	18133.5	19723.171875	16935.625	16537.0546875	15432.447265625	17926.09765625	14531.1650390625	17164.599609375
1200	1500	11578.6376953125	16153.42578125	11962.4765625	16881.32421875	15706.56640625	16000.6689453125	19091.443359375	11168.1943359375	11830.6533203125	13766.375	-154.1136932373047	13714.6748046875	15597.0791015625	6544.36865234375	11419.5146484375	15194.98828125	12142.724609375	17395.392578125	14404.189453125	15660.0146484375	17470.376953125	11519.1865234375	13784.8544921875	14906.6474609375	15333.8115234375	13390.1650390625	-206.9565887451172	7748.23876953125	10591.591796875	14946.6318359375	3555.822021484375	7831.8359375	15412.0009765625	13457.287109375	15365.7041015625	15319.9521484375	16257.3740234375	13159.845703125	12990.0625	14809.9013671875	12970.111328125	13074.3818359375	13031.8974609375	13701.8876953125	13552.1796875	13726.3310546875	10005.046875	12623.8896484375	13090.4443359375	13842.203125	12761.5302734375	15044.9931640625	13324.3466796875	14635.8486328125	13875.2080078125	14412.0048828125	13359.3271484375	14684.84375	13637.8857421875	15415.681640625	13904.4443359375	13592.7216796875	17977.689453125	15281.1513671875	15133.3408203125	14209.69921875	11979.0986328125	12979.701171875	14714.568359375	15874.451171875	15755.4326171875	13218.5595703125	15363.73046875	13832.5322265625	13954.50390625	15880.2080078125	12721.3828125	13079.65234375	13167.23046875	13711.8466796875	11009.580078125	13126.44921875	13131.0458984375	13650.16015625	14476.8974609375	13451.40234375	13885.93359375	14232.4921875	14730.1240234375	13737.203125	12523.453125	15753.177734375	14040.8388671875	15737.228515625	13486.9814453125	13337.1201171875	14295.5771484375	14051.375	12740.908203125	14151.498046875
1500	1800	11693.4677734375	15419.3828125	9979.7880859375	13648.880859375	11384.3603515625	13604.4169921875	15585.572265625	9587.3681640625	9535.5771484375	12285.701171875	670.8310546875	12393.640625	15057.16796875	-988.7786254882812	11454.5341796875	14346.0419921875	10370.2353515625	14377.2958984375	10674.6708984375	13359.267578125	16984.6484375	10164.7861328125	11423.6943359375	12661.9775390625	14356.96484375	4545.3505859375	-112.15245056152344	7851.6142578125	9378.0546875	14026.650390625	3902.225341796875	8008.9345703125	12227.98046875	11960.515625	11816.65234375	11755.6435546875	13193.7978515625	11410.1201171875	10382.7001953125	13285.8642578125	10875.41796875	10495.0439453125	11356.4482421875	11481.1591796875	11873.689453125	11118.39453125	9452.4580078125	9963.4111328125	11164.0693359375	10853.61328125	9951.7431640625	10550.30859375	10630.2529296875	11188.0439453125	11392.0400390625	11862.85546875	10872.0810546875	11546.4814453125	10674.22265625	12264.41015625	10908.13671875	11116.5703125	17643.94140625	12875.76171875	13337.822265625	11488.6923828125	9866.5947265625	12509.8076171875	12371.79296875	12866.130859375	14032.1484375	11411.03125	12582.119140625	12027.236328125	11247.6171875	13609.568359375	11454.095703125	11063.2880859375	10743.4736328125	11458.7314453125	8577.904296875	10705.099609375	10642.908203125	11725.0322265625	12064.4111328125	9902.291015625	10921.4716796875	12111.4873046875	11851.4638671875	11263.3193359375	9968.419921875	13080.2109375	11195.50390625	12751.234375	11183.6630859375	10490.447265625	11784.87109375	11729.7109375	9703.865234375	11975.7880859375
1800	2100	11487.91796875	14905.1826171875	8467.0673828125	11683.9072265625	9076.162109375	11225.9638671875	13820.8330078125	7920.72216796875	8128.45263671875	11873.1396484375	766.4496459960938	8924.5166015625	13351.5205078125	-606.4771118164062	11144.8525390625	13502.0673828125	8735.7529296875	11720.1220703125	9102.578125	10721.58984375	15304.3623046875	9697.6845703125	9814.0244140625	8554.767578125	13886.2626953125	3111.49755859375	-216.9641876220703	8027.37109375	8147.826171875	13226.9189453125	4221.1640625	7968.60009765625	9783.380859375	10328.88671875	9268.8369140625	10014.6103515625	10630.4287109375	9854.2587890625	8752.7578125	11219.7763671875	9336.4052734375	8879.744140625	9780.5654296875	9695.12109375	9766.4677734375	9366.6044921875	6856.26708984375	8127.48046875	8863.427734375	9528.8701171875	8200.8544921875	7604.2177734375	8055.13916015625	9635.583984375	9087.912109375	9981.572265625	9887.7177734375	9593.166015625	8431.953125	9767.0478515625	9320.13671875	8910.7783203125	14397.61328125	10970.8203125	11839.48828125	9649.8388671875	9188.0361328125	10313.822265625	9939.10546875	9693.3056640625	11454.083984375	10298.9921875	10368.259765625	9879.7265625	10521.87890625	11171.2705078125	10079.08984375	9509.9482421875	8711.4677734375	9235.482421875	7656.18359375	7953.56298828125	8905.74609375	9439.7158203125	10187.3935546875	8119.2490234375	8517.9794921875	10435.287109375	9500.58203125	9326.580078125	9016.4111328125	11106.306640625	8908.9912109375	10866.564453125	9284.2001953125	8776.130859375	10731.6005859375	9633.48046875	10836.0	10238.6943359375
2100	2400	11101.9580078125	13378.01171875	7516.3701171875	9979.337890625	7343.40087890625	9393.068359375	13603.9033203125	7014.580078125	7755.3740234375	8575.8349609375	957.267822265625	6558.05419921875	11930.0478515625	-2376.9677734375	10767.9765625	13043.6650390625	7704.44091796875	10464.5673828125	7291.19970703125	9190.419921875	13431.0283203125	8609.5400390625	8426.3935546875	7664.439453125	12180.8203125	3366.40478515625	-223.99024963378906	7875.34814453125	6646.6865234375	12060.4755859375	4442.0380859375	7897.33251953125	8758.951171875	8251.779296875	7835.484375	8059.77490234375	8702.2314453125	8235.1962890625	7484.53173828125	9379.099609375	7906.67138671875	7395.7021484375	7503.90283203125	8719.396484375	8687.8154296875	7911.22412109375	5590.849609375	5900.1953125	7460.365234375	7939.33154296875	7169.291015625	4520.23779296875	6902.2919921875	7550.8828125	7337.3759765625	8446.650390625	9052.779296875	7933.16064453125	6586.38330078125	8642.1376953125	7564.6064453125	7863.0146484375	12073.595703125	10902.7783203125	9819.8271484375	8740.9638671875	7067.16748046875	9133.0927734375	8712.6748046875	8541.314453125	10345.0908203125	8598.515625	9724.4541015625	8874.802734375	7878.97607421875	10054.3154296875	8435.5205078125	8304.287109375	7495.82373046875	7914.78662109375	5417.00244140625	5974.93798828125	7891.53369140625	8319.59765625	8074.4912109375	6553.00927734375	7163.4072265625	9034.5322265625	8388.3857421875	7811.3310546875	7165.7001953125	9617.505859375	7390.4443359375	8938.9404296875	8142.08642578125	7030.53466796875	8842.75390625	9122.4853515625	8271.1865234375	8823.65625
