frame_start	frame_end	Left-Cerebral-White-Matter	Left-Cerebellum-White-Matter	Left-Cerebellum-Cortex	Left-Thalamus	Left-Caudate	Left-Putamen	Left-Pallidum	Brain-Stem	Left-Hippocampus	Left-Amygdala	CSF	Left-Accumbens-area	Left-VentralDC	Left-choroid-plexus	Right-Cerebral-White-Matter	Right-Cerebellum-White-Matter	Right-Cerebellum-Cortex	Right-Thalamus	Right-Caudate	Right-Putamen	Right-Pallidum	Right-Hippocampus	Right-Amygdala	Right-Accumbens-area	Right-VentralDC	Right-choroid-plexus	AirCavity	Skull	Vermis	Pons	CSF-ExtraCerebral	Head-ExtraCerebral	ctx-lh-bankssts	ctx-lh-caudalanteriorcingulate	ctx-lh-caudalmiddlefrontal	ctx-lh-cuneus	ctx-lh-entorhinal	ctx-lh-fusiform	ctx-lh-inferiorparietal	ctx-lh-inferiortemporal	ctx-lh-isthmuscingulate	ctx-lh-lateraloccipital	ctx-lh-lateralorbitofrontal	ctx-lh-lingual	ctx-lh-medialorbitofrontal	ctx-lh-middletemporal	ctx-lh-parahippocampal	ctx-lh-paracentral	ctx-lh-parsopercularis	ctx-lh-parsorbitalis	ctx-lh-parstriangularis	ctx-lh-pericalcarine	ctx-lh-postcentral	ctx-lh-posteriorcingulate	ctx-lh-precentral	ctx-lh-precuneus	ctx-lh-rostralanteriorcingulate	ctx-lh-rostralmiddlefrontal	ctx-lh-superiorfrontal	ctx-lh-superiorparietal	ctx-lh-superiortemporal	ctx-lh-supramarginal	ctx-lh-frontalpole	ctx-lh-temporalpole	ctx-lh-transversetemporal	ctx-lh-insula	ctx-rh-bankssts	ctx-rh-caudalanteriorcingulate	ctx-rh-caudalmiddlefrontal	ctx-rh-cuneus	ctx-rh-entorhinal	ctx-rh-fusiform	ctx-rh-inferiorparietal	ctx-rh-inferiortemporal	ctx-rh-isthmuscingulate	ctx-rh-lateraloccipital	ctx-rh-lateralorbitofrontal	ctx-rh-lingual	ctx-rh-medialorbitofrontal	ctx-rh-middletemporal	ctx-rh-parahippocampal	ctx-rh-paracentral	ctx-rh-parsopercularis	ctx-rh-parsorbitalis	ctx-rh-parstriangularis	ctx-rh-pericalcarine	ctx-rh-postcentral	ctx-rh-posteriorcingulate	ctx-rh-precentral	ctx-rh-precuneus	ctx-rh-rostralanteriorcingulate	ctx-rh-rostralmiddlefrontal	ctx-rh-superiorfrontal	ctx-rh-superiorparietal	ctx-rh-superiortemporal	ctx-rh-supramarginal	ctx-rh-frontalpole	ctx-rh-temporalpole	ctx-rh-transversetemporal	ctx-rh-insula
0	30	1.6284215450286865	0.5950248837471008	1.6868244409561157	-0.19466419517993927	4.550516128540039	1.0093603134155273	-2.456688165664673	5.381275177001953	1.2078100442886353	-4.634897708892822	-0.7248164415359497	1.6685396432876587	36.537418365478516	52.69596481323242	2.3051769733428955	-0.39695897698402405	2.764641046524048	3.599402904510498	-1.3161513805389404	2.281001091003418	1.1318880319595337	6.962195873260498	-1.7107750177383423	4.649798393249512	3.97100567817688	17.430889129638672	0.27157148718833923	3.1958165168762207	6.82585334777832	0.20931842923164368	2.852273941040039	4.142141342163086	11.993372917175293	-3.0988383293151855	18.10565948486328	0.30041736364364624	-3.193929433822632	1.4606990814208984	0.5967056155204773	-1.3056135177612305	3.569326639175415	10.330963134765625	13.989578247070312	0.18791493773460388	-4.861171245574951	7.7603936195373535	11.634528160095215	1.1073436737060547	-2.7081491947174072	19.294336318969727	-5.1913604736328125	-3.625121831893921	-0.6102156639099121	-1.9846551418304443	-2.337655544281006	0.7101675271987915	4.245444297790527	-1.7074183225631714	-0.4623248279094696	-0.33278271555900574	4.373763084411621	-0.5641262531280518	-7.327754020690918	-4.5355730056762695	4.737767219543457	1.875581979751587	-3.565070629119873	-0.5046696662902832	-4.56287956237793	0.6200835108757019	-6.043544292449951	13.3699951171875	-1.0083935260772705	9.163705825805664	0.2682117819786072	5.559747219085693	0.5749033689498901	4.178886413574219	2.2653980255126953	3.448245048522949	15.2979154586792	17.189603805541992	18.399381637573242	-0.21646423637866974	9.529380798339844	5.354094505310059	0.6724339723587036	-7.3720831871032715	2.7390964031219482	-3.107590913772583	8.341399192810059	9.5394868850708	-1.9730061292648315	-2.891761064529419	4.479960918426514	-1.6362468004226685	-7.868902206420898	-2.8303511142730713	13.113584518432617	3.4957778453826904
30	60	249.65589904785156	44.26112747192383	128.6185760498047	270.2366027832031	186.34188842773438	643.768310546875	145.29530334472656	479.6702575683594	273.7122802734375	167.201416015625	161.79925537109375	1009.9207153320312	224.89935302734375	1708.99072265625	261.4710693359375	68.32808685302734	173.84153747558594	297.30474853515625	391.6119689941406	367.08587646484375	224.5669403076172	153.10198974609375	427.2856140136719	349.4621887207031	341.3687438964844	1475.1666259765625	132.37188720703125	68.88229370117188	192.52073669433594	38.53000259399414	327.4299011230469	148.70240783691406	625.3475341796875	1007.2449340820312	766.9661254882812	1263.9246826171875	96.43514251708984	401.04083251953125	600.0406494140625	42.84208679199219	638.5756225585938	601.4638671875	454.96246337890625	702.9334716796875	999.6351928710938	95.6656265258789	173.40438842773438	681.64306640625	585.6954345703125	391.864990234375	693.0560302734375	747.7426147460938	814.1531982421875	191.2136993408203	664.1592407226562	840.0384521484375	655.5691528320312	720.2489624023438	850.5819702148438	272.95611572265625	776.1058349609375	631.1932983398438	32.682254791259766	449.94964599609375	2009.683349609375	718.8458251953125	539.070556640625	892.4244995117188	756.0101318359375	709.7220458984375	-105.86524200439453	475.2446594238281	563.2506713867188	91.84447479248047	94.30132293701172	532.2998657226562	464.1186828613281	656.3296508789062	893.70947265625	415.4572448730469	500.2822265625	533.6270751953125	404.09564208984375	295.0537414550781	202.21823120117188	942.39697265625	715.6849365234375	1307.6917724609375	512.7308349609375	720.1861572265625	731.03173828125	572.8049926757812	587.6930541992188	607.4509887695312	623.4356079101562	511.1563720703125	345.37744140625	947.3475952148438	1851.1361083984375	1091.87646484375
60	90	2592.023681640625	3707.20947265625	5685.94775390625	7451.69140625	8314.6337890625	9568.521484375	4564.7255859375	5547.9921875	7555.88525390625	3950.693115234375	2123.521240234375	10856.9228515625	5675.0576171875	16329.025390625	2718.6201171875	4119.88232421875	5685.662109375	6998.810546875	7182.78125	10398.537109375	4796.95458984375	6517.0302734375	5963.93896484375	8733.8603515625	6900.14208984375	11763.4794921875	1549.3056640625	1249.0552978515625	7214.2646484375	5739.3427734375	3068.15283203125	2196.647705078125	11176.4228515625	9982.6728515625	12494.7177734375	17617.052734375	8187.05126953125	8200.716796875	9941.150390625	8137.29052734375	12614.6025390625	12467.1103515625	10789.7529296875	13640.689453125	10951.1552734375	7807.5947265625	5864.51806640625	11835.0302734375	11769.33203125	11838.57421875	13203.6435546875	20988.046875	12867.046875	10521.3701171875	12746.8603515625	10176.5888671875	11408.6943359375	12575.3583984375	11334.1982421875	11131.517578125	10779.216796875	10083.2822265625	15844.1787109375	8603.2490234375	20336.626953125	10808.494140625	10626.3056640625	11239.669921875	11833.7626953125	15060.6669921875	8189.2451171875	8806.1435546875	9713.1162109375	6960.8681640625	11238.1787109375	12047.8359375	11025.0302734375	13826.3466796875	12429.4326171875	7614.0673828125	6079.955078125	9846.55078125	10238.1220703125	11015.39453125	12250.39453125	18295.619140625	12390.9306640625	9522.8671875	12070.2880859375	10593.6865234375	10711.337890625	11720.146484375	11737.0087890625	11125.021484375	11164.2197265625	9841.0341796875	16199.201171875	11354.845703125	22877.46875	11742.126953125
90	120	6995.42626953125	9755.775390625	15479.1650390625	18359.078125	23601.71875	26306.2109375	11160.607421875	13716.3095703125	16262.716796875	15224.9423828125	5387.294921875	23142.0	16710.337890625	43740.4375	6956.46630859375	9985.994140625	15614.5751953125	18877.25	21798.998046875	25498.576171875	11048.33984375	18215.06640625	15622.0341796875	26275.1953125	17053.994140625	56818.45703125	3507.302734375	3344.2890625	19211.927734375	14902.5068359375	5786.14990234375	5598.4375	31079.26953125	27657.2265625	33623.03125	44547.90234375	12613.02734375	24806.162109375	27821.435546875	22163.3203125	34232.8984375	33206.78515625	30372.080078125	35858.421875	25966.90625	21825.2890625	19141.12109375	26171.88671875	31693.033203125	29429.767578125	34429.046875	44603.2578125	32495.126953125	28228.05078125	32855.46484375	29608.9921875	26551.40234375	34157.2578125	32162.8203125	30603.16796875	27493.947265625	27059.533203125	37618.85546875	20802.9921875	60334.25	25276.7578125	33108.765625	25984.162109375	34639.46484375	37674.0078125	19108.935546875	22799.859375	28051.267578125	21246.4765625	23838.818359375	34527.140625	27234.0078125	34762.578125	37196.27734375	21858.796875	19008.470703125	25172.81640625	29840.884765625	29004.17578125	31558.875	42140.55859375	34672.3828125	25609.98046875	30920.439453125	28755.220703125	23584.03515625	34092.125	31076.951171875	30982.4453125	29149.6484375	26089.837890625	38609.12109375	20960.578125	48756.0859375	25756.19921875
120	150	11606.611328125	17238.224609375	28686.302734375	32816.8515625	40999.18359375	41862.14453125	23075.546875	23453.20703125	28074.171875	24749.13671875	8480.2841796875	45547.41796875	27477.56640625	51152.58203125	11555.2724609375	17316.291015625	28259.05078125	33806.890625	41565.18359375	44817.3046875	18775.076171875	28105.1171875	25757.37109375	37299.32421875	29140.1328125	80554.796875	5685.6416015625	5336.1748046875	34547.62890625	25745.279296875	7562.6015625	9485.251953125	52722.6015625	43441.33984375	58485.953125	68465.15625	25541.7734375	41468.88671875	47975.83984375	40652.41015625	47068.03125	56988.08203125	50417.41015625	62349.8046875	49511.71875	39434.1484375	33715.05859375	49116.515625	53795.94921875	48492.1328125	55167.90625	78114.7578125	56579.46484375	46391.8359375	55797.05078125	50877.15625	39254.890625	58938.67578125	55815.15234375	53976.44140625	45793.1171875	48256.51953125	62949.5546875	35836.20703125	98586.0546875	42855.62109375	53141.1328125	45994.34765625	58647.2734375	68773.5	29017.029296875	38677.0	47560.9375	38769.078125	48652.9609375	60852.05859375	47494.1796875	59462.71484375	54745.32421875	38460.9609375	31121.0234375	47103.09765625	49476.47265625	54093.90234375	51688.84375	74294.03125	54948.8046875	51238.43359375	53135.27734375	52244.78125	37675.703125	60005.62109375	52804.08203125	54543.734375	47014.4921875	45270.26171875	68388.890625	32501.4765625	80306.234375	40750.62109375
150	180	14118.7841796875	20264.552734375	35499.52734375	39780.390625	52295.98046875	54569.5390625	27130.873046875	28461.130859375	35181.76171875	29271.91015625	10791.7109375	56683.75390625	31754.765625	52823.8671875	13559.1142578125	21660.884765625	35590.71484375	41757.78515625	53912.609375	55764.65625	22921.50390625	33821.6875	30938.2578125	37516.4296875	36971.03125	93042.6328125	6270.90478515625	6366.06396484375	45774.13671875	32085.81640625	6854.99462890625	10915.845703125	63146.36328125	48030.9296875	75247.125	81762.3125	38005.94921875	52776.984375	61672.29296875	49146.1953125	61087.375	74406.4765625	61355.88671875	73091.8671875	57464.7890625	48890.60546875	37391.5859375	58405.3203125	63955.41015625	61341.0703125	70907.6640625	95006.953125	71923.546875	58643.21875	65702.3984375	63717.46484375	45877.5625	74619.125	68922.484375	68286.546875	56380.01953125	57225.49609375	82050.671875	39867.3125	116346.921875	45235.86328125	66383.3359375	53608.35546875	76087.703125	78499.9375	34922.4921875	47275.8125	60136.85546875	48845.1484375	55619.484375	75637.390625	58556.50390625	72109.2578125	69276.9609375	48176.90234375	43519.5390625	59876.78125	57473.0234375	67048.0078125	68668.6015625	93472.6171875	69698.71875	55140.59765625	66922.9765625	63527.36328125	40391.8828125	75580.96875	67151.1171875	69199.640625	58070.67578125	57724.96484375	88442.078125	37199.85546875	102892.9296875	45739.67578125
180	240	15349.91796875	23039.990234375	39539.515625	45265.48828125	60486.2421875	62705.77734375	29497.16015625	29932.306640625	36339.51171875	36025.10546875	9585.8603515625	55210.59765625	37024.609375	48147.75390625	15046.0556640625	24564.7421875	39320.49609375	45402.7734375	59197.94140625	60613.5546875	25384.041015625	38307.75	30808.822265625	50957.078125	37309.04296875	75868.4140625	6165.4033203125	6616.3701171875	45610.58984375	35438.95703125	5921.97265625	11723.4375	67281.625	59521.28515625	80180.15625	93312.375	39931.51171875	55334.59375	66814.2578125	55404.78125	71787.46875	77299.625	65904.296875	79565.7109375	62641.38671875	56423.21875	40370.171875	66443.3828125	69913.15625	65077.9375	77334.78125	110370.171875	77878.0703125	59728.3203125	75337.0078125	68923.0546875	51569.09765625	80991.7734375	74919.2109375	76147.015625	59773.0390625	65396.41015625	87949.390625	43198.8359375	114047.9453125	50331.19140625	67113.9140625	58852.58203125	80877.6171875	82734.1484375	31697.275390625	52223.890625	65931.375	53448.80078125	55752.80078125	82577.4375	61216.42578125	79132.5	76138.4609375	55140.4765625	42514.06640625	63727.46484375	67041.0859375	69520.3828125	73111.5859375	100608.890625	74735.2890625	64929.578125	71680.859375	68322.7890625	46822.515625	83590.109375	71906.6796875	76702.0	62442.8828125	62565.44921875	98104.1875	42255.29296875	89896.4296875	51122.93359375
240	300	15741.6162109375	23443.556640625	40491.2421875	45942.3203125	60205.2734375	64624.9296875	28854.544921875	30120.046875	34563.65234375	36536.1640625	8171.1142578125	58492.8984375	36207.99609375	50222.53515625	15521.568359375	23521.595703125	40678.53515625	47462.5859375	61783.14453125	61406.5703125	28649.009765625	37236.92578125	33314.9453125	38620.48046875	38614.796875	74550.671875	6052.3984375	6567.73974609375	45437.9921875	35200.2265625	5033.61083984375	11962.623046875	66023.3671875	59479.078125	81492.234375	92009.1015625	41708.35546875	55494.44921875	67158.15625	55834.9921875	65959.96875	75665.4921875	64620.77734375	78113.6484375	63662.390625	55330.3984375	40710.99609375	65070.890625	68568.0	69915.0625	74379.09375	106594.1953125	76117.015625	59607.02734375	72768.5078125	67789.8671875	49715.81640625	80735.53125	74748.9921875	76204.4453125	59910.7890625	66556.015625	88686.0703125	44113.9921875	107405.734375	49114.8046875	67019.1953125	60722.875	79955.1875	79236.7421875	33603.91796875	51574.62890625	65919.03125	52486.890625	60221.078125	81905.03125	60456.41015625	74763.0546875	75704.765625	55436.13671875	44221.7734375	64562.18359375	62708.92578125	67944.671875	71306.234375	98331.6171875	73756.3984375	62889.90625	70617.140625	67751.5546875	45661.7421875	83199.046875	71326.5703125	75358.9296875	62764.68359375	62670.69921875	96134.5703125	41448.046875	81933.5625	50994.2109375
300	360	16032.8232421875	22496.927734375	39546.3046875	44828.65234375	56508.13671875	62733.5859375	30593.021484375	29525.24609375	35634.04296875	37768.38671875	7358.6982421875	61582.1171875	36074.07421875	34186.734375	15825.4873046875	23463.943359375	39296.10546875	47346.5390625	61894.41796875	59409.28125	30155.6640625	37276.34765625	33419.8828125	41798.0234375	35238.953125	59427.796875	5168.8359375	6621.58349609375	45781.1171875	35944.234375	4756.00732421875	11992.9970703125	61213.23828125	55044.81640625	75228.109375	86277.6171875	38119.80859375	54524.21875	64202.18359375	54326.58203125	58878.56640625	70904.4765625	63096.04296875	72691.203125	60862.73046875	54258.375	38916.38671875	62773.23828125	68002.4140625	65475.2890625	69687.9296875	96088.0625	71060.65625	57065.05859375	69019.0625	65630.0546875	51151.234375	77289.3671875	70576.828125	71047.203125	56537.09765625	64280.56640625	81107.5546875	45664.77734375	99252.8203125	48030.53515625	64916.25	59865.52734375	73332.6640625	73620.7421875	36100.01171875	49930.25	62886.64453125	51079.18359375	56118.55859375	75947.8671875	58604.0859375	69506.7265625	71039.3671875	54426.0234375	42920.87890625	61859.9140625	63097.0234375	65025.4609375	67554.6484375	89150.03125	71279.96875	59114.1875	66716.515625	64868.1875	42668.921875	79236.84375	69199.2890625	71516.5703125	58672.96484375	60140.5390625	93312.9765625	39312.63671875	76379.3203125	49814.63671875
360	480	15996.5732421875	22371.75390625	37047.90234375	41934.984375	54275.1328125	56488.96875	32239.12109375	27718.767578125	31786.009765625	35739.640625	6849.4892578125	55145.7890625	34705.24609375	23114.849609375	15848.2451171875	21838.705078125	37159.0625	45170.87890625	53644.06640625	55045.03125	29027.10546875	34189.56640625	33404.1875	39579.24609375	35218.66796875	37399.94921875	4773.181640625	6648.44287109375	39456.58203125	32990.8828125	4024.583740234375	11690.935546875	55081.953125	53262.6328125	67181.1484375	73277.2265625	36629.41015625	48484.2734375	58024.90234375	50947.375	54806.3515625	62786.11328125	56490.1015625	64603.3046875	56611.20703125	49421.40234375	38013.2109375	57158.3359375	59787.65625	57339.32421875	63744.6796875	80800.609375	64752.41796875	51385.5859375	62310.125	59643.79296875	50215.4375	69825.3515625	64382.6171875	65218.51953125	51543.65625	57663.01953125	74055.5234375	41669.02734375	82485.1171875	44227.89453125	57739.73828125	52077.765625	65613.8515625	66804.7890625	33809.78125	45891.65234375	57280.26171875	47757.5546875	46649.40234375	67164.1640625	53667.328125	62514.48046875	64539.20703125	50061.58984375	40092.21875	53758.8671875	55410.91796875	58634.2421875	61135.6875	76772.6796875	63492.11328125	53192.4609375	59543.0	57359.4921875	41876.66015625	71640.0546875	62544.921875	64403.375	52003.82421875	54797.6796875	81346.859375	38026.66015625	63230.18359375	47125.39453125
480	600	16171.7431640625	21540.1015625	33080.11328125	38875.16796875	47486.30078125	50426.73046875	29839.85546875	24869.982421875	29095.9921875	33520.92578125	4980.25927734375	49387.37109375	31576.134765625	24428.1328125	15858.63671875	21682.98046875	33383.68359375	39713.3203125	47626.44140625	48496.1328125	29489.98046875	31282.779296875	30802.08203125	39870.2890625	34731.296875	24817.2421875	4062.2451171875	6530.47998046875	34666.05859375	30388.216796875	3518.345458984375	11365.0390625	45908.9296875	45604.89453125	57218.8828125	58796.3515625	34948.1953125	44468.4296875	49243.5078125	44007.10546875	44491.08984375	51574.7578125	48186.4140625	53992.0703125	48411.4921875	42454.2265625	32986.43359375	46337.70703125	49682.609375	49287.1484375	53926.6171875	63792.62890625	52626.55078125	42062.47265625	52020.046875	49145.82421875	41357.55859375	58632.48828125	55400.88671875	54836.80859375	44454.8359375	49631.68359375	59550.73828125	38571.90234375	64885.38671875	40602.95703125	48683.72265625	45411.1484375	55098.0859375	56910.46875	30697.24609375	39588.85546875	49175.22265625	41630.515625	41194.9140625	56480.07421875	46199.578125	51977.58203125	58378.1484375	43444.6015625	35203.1171875	46797.5	48228.765625	50023.20703125	50946.01953125	59599.08984375	51432.7109375	46220.24609375	51243.58984375	48354.48046875	38565.98828125	60536.5390625	52644.46484375	55120.3984375	45560.97265625	46208.46484375	65762.5	35067.5390625	51153.49609375	41481.72265625
600	900	15926.70703125	19942.01171875	27262.896484375	32624.962890625	36953.34375	38944.47265625	28984.884765625	22798.466796875	23981.029296875	30331.974609375	3928.911865234375	37379.9375	28980.544921875	6691.14794921875	15790.658203125	20212.513671875	27763.69140625	34510.75	36722.96484375	38572.4609375	26305.791015625	25783.892578125	27673.23046875	32596.474609375	29522.048828125	16389.814453125	3360.6728515625	6483.02099609375	26751.947265625	26377.140625	2842.274658203125	10988.2265625	34410.25	36516.57421875	43172.0859375	42637.85546875	30107.134765625	34343.57421875	37167.53125	35184.67578125	34393.35546875	37940.015625	37420.76953125	39819.1953125	39265.59375	33110.1640625	28538.6640625	35031.203125	37363.1796875	39746.71484375	40427.31640625	42095.1640625	39394.26953125	32984.828125	39060.45703125	36738.88671875	36404.60546875	44205.03125	42332.4140625	41439.96484375	34885.1796875	36935.453125	44854.15234375	33254.2578125	43627.36328125	34470.76953125	36351.42578125	36877.55859375	41712.87109375	42087.0	24477.546875	31564.373046875	37844.265625	34133.2890625	32144.10546875	43549.3828125	36193.9921875	38608.140625	42951.33984375	34393.921875	30969.83984375	36680.00390625	35489.1796875	37836.37890625	38227.53515625	40746.984375	38631.20703125	34952.26171875	37635.72265625	36390.52734375	33166.30078125	45784.12109375	40586.12109375	40833.0703125	35379.609375	35736.8671875	50934.390625	30317.623046875	35518.05078125	34720.4921875
900	1200	15415.65625	18332.4140625	20942.431640625	26312.34765625	26778.814453125	28256.37890625	26286.373046875	18613.669921875	18670.294921875	27749.0	2830.439453125	25139.984375	23551.3671875	6659.201171875	15282.779296875	18516.86328125	21016.173828125	26744.2734375	25655.30078125	27242.439453125	25339.755859375	20460.392578125	23224.7890625	23927.38671875	24951.216796875	13480.853515625	2586.4716796875	6396.345703125	21067.046875	22124.43359375	2318.20947265625	10539.150390625	23562.45703125	26408.619140625	30482.654296875	28783.908203125	25970.734375	25559.630859375	25593.853515625	26109.998046875	24109.876953125	25346.40234375	27164.314453125	25737.203125	29240.189453125	23635.1015625	20966.912109375	22706.94140625	27199.9921875	27474.818359375	27993.5	26035.6171875	25757.224609375	23964.888671875	28059.39453125	25632.330078125	27482.71875	31287.98046875	30066.580078125	28603.7421875	25048.958984375	26163.76953125	27273.498046875	26472.1796875	29300.89453125	25482.56640625	26011.01953125	26344.95703125	28930.009765625	28680.234375	19540.693359375	23973.14453125	26788.939453125	24345.478515625	22453.859375	30304.361328125	26577.216796875	25897.51171875	30671.927734375	24760.50390625	23427.666015625	24929.58984375	24667.501953125	26811.201171875	27554.751953125	24747.205078125	25989.63671875	24218.19921875	26499.6640625	25133.95703125	24224.9921875	32422.86328125	29237.8828125	28226.0234375	24468.896484375	25005.875	33887.1640625	23362.798828125	25375.654296875	26360.421875
1200	1500	15010.921875	17469.298828125	16640.6875	21276.357421875	20813.955078125	22602.66796875	22540.40625	16401.33984375	15619.705078125	23250.05078125	2278.871826171875	19742.693359375	20091.017578125	2264.9697265625	14784.0185546875	17442.560546875	16923.810546875	22084.896484375	19550.46875	20905.220703125	22152.1875	16463.810546875	20069.09375	18383.517578125	21560.390625	17583.29296875	2265.297119140625	6529.54248046875	15386.55859375	19210.97265625	2531.267333984375	10258.6884765625	17813.8203125	21192.5703125	22439.3671875	21962.36328125	20414.6640625	20109.3828125	19637.380859375	19814.91015625	19085.326171875	18843.18359375	21180.56640625	18994.77734375	22299.01953125	17850.748046875	15946.60546875	16901.75	20091.185546875	21225.904296875	21234.078125	16798.0	19221.59375	17340.677734375	20231.240234375	18158.158203125	22134.84375	23276.65625	22389.80078125	20969.236328125	18558.57421875	18922.37890625	19930.064453125	21669.32421875	20158.28515625	20118.62109375	19633.462890625	20907.431640625	22377.978515625	20087.61328125	15583.2880859375	18599.595703125	20639.013671875	18754.197265625	18796.138671875	23216.994140625	20293.51171875	19295.2109375	23032.580078125	19090.337890625	17961.783203125	19073.962890625	17775.84375	19093.583984375	21289.453125	16761.88671875	18548.548828125	20262.240234375	19628.611328125	18553.298828125	19456.1015625	24301.19921875	21569.080078125	21157.86328125	18144.171875	18993.537109375	23916.759765625	18963.5390625	18854.591796875	20501.107421875
1500	1800	14640.3505859375	16496.21875	13820.0263671875	18019.236328125	16224.111328125	17386.818359375	21195.36328125	14164.1572265625	13691.0439453125	18733.73046875	1708.03564453125	12028.8203125	17500.623046875	4690.9384765625	14365.9873046875	16007.7158203125	14120.8193359375	18353.33203125	15602.8076171875	16813.435546875	20876.140625	13534.7158203125	16680.373046875	16814.22265625	19109.470703125	13561.8564453125	1807.055419921875	6700.88427734375	13316.482421875	17118.49609375	2366.05078125	9995.6796875	13293.2578125	17987.333984375	19155.693359375	16068.951171875	19182.451171875	16822.404296875	15533.9072265625	16079.9326171875	14292.357421875	15020.6181640625	16401.353515625	14594.5400390625	18370.275390625	13800.3076171875	14249.44140625	12898.6162109375	15667.0478515625	16630.90234375	17037.298828125	11663.177734375	14604.037109375	13732.7353515625	16477.2890625	14197.044921875	18228.9453125	18209.333984375	18135.0625	17042.408203125	14285.64453125	15289.3046875	12928.5205078125	17522.431640625	16986.158203125	17071.849609375	15819.4833984375	16070.826171875	17439.181640625	16405.443359375	15323.9052734375	14917.0224609375	16858.2890625	15081.8876953125	14600.3916015625	19660.2421875	16172.6728515625	14995.7958984375	17845.1171875	15053.58984375	14412.5498046875	15001.9921875	14213.23046875	15478.4384765625	17022.568359375	12126.8740234375	15512.97265625	15332.7568359375	15762.34375	15194.2763671875	16483.427734375	19312.783203125	17479.986328125	17130.064453125	14763.810546875	15148.943359375	17809.6796875	15892.533203125	15141.8134765625	16538.509765625
1800	2100	14020.5908203125	15266.2373046875	11832.8876953125	15592.7841796875	14334.5234375	14662.5439453125	18090.21875	12536.861328125	12020.443359375	16596.927734375	2440.697998046875	9675.560546875	15820.1640625	-156.8017578125	13866.298828125	15302.3447265625	11854.3603515625	15356.9189453125	13122.296875	14251.7060546875	18715.591796875	11906.2783203125	13570.08984375	9350.640625	17169.193359375	9283.51171875	1662.715576171875	6639.88720703125	12008.2841796875	15687.4833984375	2538.765380859375	9838.4208984375	11631.703125	14286.646484375	15785.4921875	12029.052734375	15619.875	13945.5615234375	12803.98828125	13569.3232421875	12069.6669921875	12746.296875	14212.98046875	12660.1044921875	15662.9541015625	11709.3115234375	10494.0947265625	10646.0625	14136.4853515625	14291.001953125	13837.3916015625	10141.33984375	12071.8046875	11317.5537109375	13297.1591796875	12210.0263671875	15689.0361328125	15214.19921875	15377.2587890625	14221.60546875	12607.484375	12037.3232421875	10820.15625	15056.8681640625	13581.078125	14538.89453125	13362.783203125	14031.4921875	14882.5869140625	14130.6572265625	11006.763671875	12502.814453125	14209.6328125	12939.6416015625	13159.0322265625	16507.2421875	13261.4150390625	12796.0244140625	15452.18359375	12505.4248046875	15452.9033203125	12491.140625	12566.578125	14287.751953125	14862.1611328125	8822.892578125	12641.5625	11769.630859375	12376.56640625	12393.37890625	15930.939453125	16053.203125	14224.2470703125	14488.263671875	11251.0283203125	12418.3623046875	14535.326171875	13683.7109375	12704.751953125	14519.3916015625
2100	2400	13409.3125	14464.7353515625	10056.26953125	12849.6005859375	11446.4677734375	12314.263671875	16720.369140625	10765.4130859375	10944.337890625	13651.607421875	2123.412353515625	8342.5556640625	14358.2314453125	-889.436279296875	13196.6923828125	14280.6796875	10158.7607421875	12670.171875	10709.1474609375	11577.82421875	16783.525390625	10769.0458984375	12193.904296875	7434.29443359375	14075.181640625	14122.0693359375	1775.3143310546875	6547.50537109375	10170.2705078125	13952.5478515625	2524.931640625	9638.947265625	9141.1103515625	12893.376953125	12595.6474609375	11137.064453125	12158.2451171875	12443.861328125	10174.7041015625	11326.6787109375	9744.455078125	10839.96484375	11995.998046875	10284.68359375	13970.287109375	9716.240234375	9612.0966796875	8256.736328125	11235.5791015625	13095.314453125	11930.125	6372.49951171875	9378.4033203125	10189.048828125	11017.4755859375	10255.447265625	12681.4501953125	12432.849609375	12554.6767578125	11855.0302734375	9888.703125	10402.630859375	7824.8642578125	13510.783203125	11278.236328125	11249.01171875	11648.134765625	12116.16796875	12217.76171875	11847.3193359375	9775.1611328125	10718.4423828125	12159.1171875	10516.126953125	10770.4931640625	14567.259765625	12202.0458984375	10763.2138671875	12278.3505859375	10602.68359375	10892.2646484375	10989.9658203125	10154.6435546875	11086.056640625	11633.2373046875	6609.1953125	9971.447265625	9903.935546875	10803.3349609375	10922.1494140625	10834.0498046875	13437.361328125	11754.2900390625	12141.4189453125	8859.958984375	10833.1767578125	8933.1923828125	11241.5302734375	9353.7587890625	11506.4892578125
2400	2700	12779.9833984375	13196.560546875	8839.2080078125	11038.048828125	9056.607421875	10561.525390625	14458.7568359375	9579.5654296875	9435.248046875	12553.203125	2345.517578125	5883.82177734375	12344.2666015625	693.6494140625	12581.25390625	13022.046875	8991.294921875	11162.2822265625	9116.8349609375	9186.6357421875	15093.7470703125	9807.0302734375	10597.4697265625	6568.857421875	13114.703125	7563.60693359375	1522.62158203125	6511.91552734375	7866.8974609375	12830.22265625	2574.240478515625	9321.9521484375	8246.4990234375	10832.287109375	11375.6162109375	9461.919921875	11870.2236328125	10314.46875	9127.5029296875	9543.048828125	8672.9892578125	9576.185546875	10237.0458984375	8472.73828125	12008.1484375	7775.0615234375	8861.6123046875	7919.11669921875	10389.1328125	10881.7841796875	10397.529296875	4930.640625	8249.1484375	8991.8271484375	8904.9072265625	8272.80078125	12433.7548828125	10775.1162109375	10397.9833984375	9890.8564453125	8878.2294921875	8423.4892578125	5509.47265625	11507.6650390625	8910.62109375	8786.99609375	9859.9296875	11062.71484375	10760.5	9554.142578125	9150.4697265625	9017.1025390625	10686.37109375	8963.806640625	8193.033203125	12272.9853515625	10270.4296875	9603.7470703125	9272.427734375	8627.9833984375	8916.62109375	8022.52392578125	8049.42041015625	10597.1103515625	11253.2451171875	6091.29248046875	8724.36328125	7707.18115234375	8356.4306640625	8525.6845703125	9058.6328125	11360.693359375	10264.80859375	10224.0	7906.53076171875	8667.5712890625	8592.34375	8598.6787109375	8858.7744140625	9698.2373046875
