frame_start	frame_end	parasubiculum	HATA	fimbria	hippocampal_fissure	HP_tail	presubiculum-head	presubiculum-body	subiculum-head	subiculum-body	CA1-head	CA1-body	CA3-head	CA3-body	CA4-head	CA4-body	GC-ML-DG-head	GC-ML-DG-body	molecular_layer_HP-head	molecular_layer_HP-body	Lateral-nucleus	Basal-nucleus	Central-nucleus	Medial-nucleus	Cortical-nucleus	Accessory-Basal-nucleus	Corticoamygdaloid-transitio	Anterior-amygdaloid-area-AAA	Paralaminar-nucleus
0	30	0.48075	0.775	3.01107	5.74622	0.74469	1.10117	13.79363	0.49468	6.74847	0.63725	0.71452	10.33009	3.79074	2.51966	4.48528	2.11442	5.41245	1.5726	5.28313	0.72754	0.8124	5.37068	1.58296	2.22236	1.75631	0.87141	0.72331	0.25973
30	60	109.9598	306.27437	265.07987	282.499	286.30625	118.75523	298.12371	118.54329	353.50692	222.8082	532.13756	313.25578	478.14502	256.59461	444.80398	230.4831	449.57709	195.83787	433.39282	102.61682	187.70646	195.10968	320.43985	237.70862	262.94595	404.92691	429.51893	158.90308
60	90	7645.42184	4254.22554	5833.06504	6739.08192	5864.40389	6764.77411	6996.44755	5227.37936	5944.49071	5225.50764	3977.07332	5915.63083	5497.22464	6436.51155	5866.88875	6125.53229	5846.15984	5574.43911	5737.36996	3952.80627	4897.45241	4870.56593	4972.14715	3907.55816	4121.41882	3947.91248	5505.3737	5253.09511
90	120	13309.81534	12626.19052	14176.86326	14485.67907	13915.51112	13686.58477	15822.71186	11276.26889	14018.60741	12832.41921	12866.17827	14203.46755	13679.89082	13226.76831	14457.22849	13377.71194	14619.7033	13068.08501	14391.66505	13190.03688	13356.9816	12882.60979	12033.73382	12300.91372	13681.8622	13558.80362	15792.50284	12697.62538
120	150	23571.46206	20721.72267	25182.47635	24921.6771	21035.36979	26305.54829	25088.66962	22152.85253	23174.94415	21989.86778	21975.76571	21619.59516	23903.60061	25480.22097	24634.89701	24548.99393	24487.38086	23530.08451	24359.64011	20686.46065	23496.34653	20351.91337	18943.51758	20055.86236	22657.4149	21618.75018	23588.90793	23247.88552
150	180	29116.27535	22467.45626	29829.31919	30800.93937	27729.01159	31622.90757	29333.87707	27621.36586	30270.03857	26358.08625	25804.34722	29771.27085	27753.91541	31180.78549	30303.18005	29461.85896	30155.16562	28964.78516	29466.42729	25243.23152	27921.00899	26866.13069	25304.28069	24315.28412	25025.99685	24735.94805	30571.10102	26374.56214
180	240	30014.42531	25957.04353	30225.9412	31442.15822	30279.77899	34305.3582	30664.57086	31172.50059	30224.10382	28732.01821	26677.75832	29393.23994	29091.58573	32502.59654	31041.93912	31019.66762	30819.04824	31441.45994	30382.61982	29434.35887	31564.75186	29730.1408	28887.61775	29095.71726	30816.54942	28389.93851	33271.0893	30321.75768
240	300	27797.58483	23710.54131	29943.30919	30436.20636	27862.80513	31863.27595	29748.21241	31223.53954	31489.91971	28328.19942	27257.01467	27883.97409	28863.64291	31030.43639	31427.5304	29725.74196	31230.85617	30744.85752	30630.08671	30904.51159	31378.24426	30448.77561	27400.36523	28142.02935	30243.77439	26612.57053	28617.47579	29271.97075
300	360	27114.11876	26680.59804	30039.47383	30262.34434	28057.67438	33077.23686	30515.50815	32921.84541	28750.87443	29587.72927	26252.0608	28514.44797	28505.34498	32300.34228	30341.11623	31121.38842	30256.05512	32478.63525	29595.98428	30428.89467	33200.76836	29159.10725	28125.34961	27975.85122	31120.14984	27931.07707	30299.34007	31842.79616
360	480	25444.72189	24300.52089	27639.17826	28529.31923	25323.26962	30184.43902	27646.05037	29779.59054	28326.07382	27818.9341	24380.66145	25784.64923	25811.20373	29023.46273	28311.17592	28415.92308	28004.56832	29560.1264	27615.22316	28354.69076	30611.03713	28125.47387	26083.39062	26144.32904	29049.85289	26637.80975	28692.09693	28239.4976
480	600	24017.50998	21592.49313	25735.66263	25680.66542	24694.91268	28195.59918	24996.68538	28229.17909	26090.54135	25077.1008	22888.0458	23038.66897	23620.87596	27345.25096	25292.4254	26016.98947	25210.20434	27231.57595	25019.47738	28007.49381	28508.41061	24942.51467	24946.87695	26032.36437	26124.15323	23130.01578	26237.24014	27754.3141
600	900	20471.03575	20092.60769	23215.66365	22075.08847	20699.44196	23602.24923	21843.70948	24058.64746	23364.15431	21889.65246	19003.657	19684.83321	20697.711	22480.31181	22739.62892	22045.01104	22609.73433	23082.99376	21923.73137	25117.88657	24897.46626	21330.27174	22487.33761	22349.41515	23334.08246	20987.65116	23557.8383	23276.67261
900	1200	16842.88192	17719.13258	18494.90453	17858.49017	17159.21269	18906.43628	17769.19122	20196.21646	18408.03208	18402.7989	16787.47183	16007.29177	17538.20642	17884.53779	18146.47522	17870.31562	18141.87858	18791.14746	18069.95376	22339.93336	21848.97267	19866.64256	19047.69224	19854.19798	21161.34083	18437.47206	19778.11074	20365.16251
1200	1500	14447.32333	14432.07386	16421.61978	15406.13116	14993.52421	16396.29912	15241.03789	17011.1881	16047.2053	15641.69744	14662.54576	14169.3296	15329.07884	15330.30558	15864.41065	15211.62404	15755.46907	16196.94138	15515.13473	19347.66146	18552.95739	16989.06402	17150.95396	17256.14493	17329.24866	15110.39326	15810.81243	17656.4033
1500	1800	12472.66476	13862.80663	15087.24995	13680.16903	13355.2484	14616.11008	13616.52331	15354.81227	13842.83966	13806.88794	13495.13277	12943.17915	14651.42809	13760.75298	14289.18982	13880.39638	14166.49057	14256.36922	14091.77423	16332.08736	14825.30675	15558.15918	15855.95703	16532.49417	15189.71763	13649.8195	14026.45994	13780.21429
1800	2100	10762.09799	12785.16461	13346.46908	11875.61108	11951.10616	12373.33542	12569.15679	13486.77014	12552.77592	12524.83323	11757.29108	11709.31663	12502.16533	12309.00057	12398.52853	12271.46295	12472.15326	12789.72142	12398.78601	14169.77891	13497.04625	14085.53407	14747.52427	14487.45766	13591.76403	12449.84968	12486.18825	13402.86512
2100	2400	10689.9575	10817.54747	12532.32479	10973.14604	10924.45647	11362.29554	10636.7334	11899.81856	11418.01296	11475.19699	11803.71111	10881.7495	12184.25905	11091.08038	11876.57588	11240.75985	11884.28479	11588.82085	11625.66592	13154.17209	11148.07571	12357.9018	13169.65193	12663.09579	11207.23401	10254.2255	9628.00236	10656.18406
2400	2700	9412.4219	8913.9879	10829.54517	9892.42537	10254.09896	9819.51552	9913.28775	10371.94576	9931.33338	9961.95815	9816.70573	10131.21298	10548.41505	10318.66822	10039.08322	10236.19988	10067.41046	9967.64359	10022.90971	10954.52843	11094.88827	11947.39128	13145.59012	12852.11219	10815.30873	9493.48287	9097.77382	9902.11262
2700	3000	8213.85556	9127.04819	11438.85344	9080.52528	8948.32997	9083.57071	9376.59967	9872.89964	9696.10814	9218.20451	9832.60117	8291.8939	11026.13758	9005.34671	10332.43078	9007.13385	10317.30601	9249.5524	10020.86301	10214.22955	9157.03611	10635.92411	11841.82631	11770.84964	10039.22122	8929.21705	8265.90853	8996.51046
3000	3300	6414.73312	9106.37407	10172.36818	8101.76727	8304.19144	7489.68328	7951.43207	9663.60118	8550.85672	8735.28052	9561.94668	8679.75713	10487.33923	8131.86277	9400.70854	8331.73245	9378.31492	8596.50655	9204.54837	9699.12848	8203.57833	9580.79742	10468.21568	9763.72228	8671.2707	8105.79157	7765.89362	7701.60079
3300	3600	6712.90581	7639.5032	9927.9454	7697.66495	8356.69438	7466.76661	7886.57536	7827.12863	8102.62512	8044.57881	8182.14989	7732.14876	9860.60808	7607.57588	9186.91029	7746.25344	8915.39395	7757.39823	8649.05074	8169.48821	7469.06491	7715.43696	9739.97628	8945.93782	7562.88823	7292.20563	6798.5444	7752.79613
3600	3900	5759.09866	8596.23703	7789.84553	7216.68019	7747.73986	6867.95698	7025.30391	7508.70524	7820.94508	7472.33014	8373.34723	7695.71091	8476.46143	7597.14594	7673.89382	7706.42352	7798.41094	7319.64942	7832.52938	7802.92699	6695.17953	8071.99602	9619.23354	9674.61469	7942.25529	7654.64039	6362.82216	5617.63933
3900	4200	7239.61992	7583.4525	8480.19352	7110.49041	6458.10736	6961.88668	6989.02529	6508.94499	6885.62407	7518.99839	8754.37442	7566.38319	8745.66643	6629.43406	7517.09458	6819.58766	7733.47896	7331.4089	7704.47524	6249.35695	6433.3665	8365.29537	7848.86405	6691.30302	6780.42134	6577.52363	6537.00618	6393.62846
4200	4500	7599.98378	8030.65426	8426.77827	7701.1718	7482.44256	8075.45563	6400.73798	6291.50617	6793.68528	7160.90302	7560.68609	7782.82359	8682.9408	6949.54647	7874.1227	7308.17548	7642.46135	6659.03666	7400.22678	6075.40029	6205.7257	9759.48058	9401.05225	9234.82695	7421.23531	6794.99312	6534.25109	5789.78412
4500	4800	5669.18123	8258.51767	7544.68473	6534.82685	7271.01235	5772.84322	6726.69073	6555.95952	7826.53309	6258.00225	7424.35821	6337.1296	7526.51558	5379.74296	7156.46917	5611.41401	7334.51623	5766.61964	7497.83088	6446.44419	5408.89759	6980.50268	7749.73082	7984.07794	7352.59039	7653.55038	5237.34531	5828.59627
4800	5100	5172.96122	8157.54969	5836.67193	6477.37045	6411.96489	6693.71925	6139.11713	6472.28815	6658.0785	6232.79464	6937.15787	8033.3913	6479.28535	6326.16742	6424.867	6335.82753	6398.55862	6090.55266	6375.62486	7807.02527	6236.34429	7948.32777	7691.04136	6948.61779	6640.89198	6990.80201	5772.67957	5178.05915
5100	5400	5820.58867	6580.00235	7238.58639	6456.78937	5827.22405	6113.04293	6568.9977	5755.18881	5802.89869	5916.80802	5496.92676	7430.47944	6393.75971	7311.45097	6382.53275	7218.91687	6152.86721	6126.01493	6041.82473	5650.03969	4779.66655	7007.01583	6246.04939	6435.66722	5530.50257	5689.22715	5326.17973	4095.17389
5400	5700	6165.7543	6938.92353	5942.17913	6064.43526	7126.67753	6397.34694	6216.66999	6918.59309	5872.04738	6130.69591	7701.73682	6939.52638	7079.3044	5764.2321	6342.36931	6280.53363	6379.53175	6113.08223	6672.06786	6371.89626	4814.95636	6388.28502	7929.41818	6707.92875	5446.54033	4970.87299	6478.76463	5275.97404
5700	6000	7330.05334	6383.98638	6772.85777	5595.7158	6307.58236	5807.45034	5691.66326	4413.97403	5311.10869	5123.27017	6494.5667	5490.14797	6530.62381	5456.57421	5439.62636	5615.3279	5576.49997	5086.15673	5731.05	6028.86854	5942.62905	7882.76427	7961.69364	7025.68539	5972.46304	5087.46105	5320.82877	5735.8753
6000	6300	4164.27287	6914.57315	9091.66395	5374.45232	5664.84095	4638.16253	4164.56895	5791.76063	5863.19112	5483.2176	8166.05447	6241.5077	8190.94731	5847.09333	7420.21562	5832.88505	7320.14061	5637.7845	6900.67824	4878.95204	4335.28802	5313.29359	5071.53871	6032.09915	5360.62467	5495.53884	5168.27028	4907.45155
6300	6600	5233.16875	5304.58272	8314.77738	6534.54565	5929.53224	5050.28485	6579.8492	4450.76765	6079.0806	5705.87819	6209.14244	8250.82233	8021.98015	7213.64961	7625.8035	6878.64861	7314.67648	5713.33448	7034.13667	4811.40828	5545.53092	6600.22183	5284.23131	5391.65656	6743.22554	5204.58587	5624.05304	4559.43121
6600	6900	4288.49615	5339.49342	6531.7122	6279.20185	6300.86504	4791.81926	5256.35117	4497.83349	6623.27545	5764.40688	8148.87168	7597.68674	7298.93952	8377.75775	6995.5855	7834.38554	7182.60512	6011.42639	6975.54414	6085.33611	4792.73539	5373.75984	5117.66846	6282.83272	5189.84295	4831.96484	4585.0014	3219.38144
6900	7200	6050.63095	6064.32774	4807.01663	5996.64671	6776.08719	5524.09565	6627.80411	5127.95298	5300.34601	5374.22111	4596.97491	5694.2784	3751.39437	5504.95054	4299.81388	5668.84544	4178.93367	4787.5229	4748.24875	5199.4094	4468.93061	4891.27575	4101.15785	4434.65601	4010.71864	4868.75786	5044.05087	4628.08886
