frame_start	frame_end	parasubiculum	HATA	fimbria	hippocampal_fissure	HP_tail	presubiculum-head	presubiculum-body	subiculum-head	subiculum-body	CA1-head	CA1-body	CA3-head	CA3-body	CA4-head	CA4-body	GC-ML-DG-head	GC-ML-DG-body	molecular_layer_HP-head	molecular_layer_HP-body	Lateral-nucleus	Basal-nucleus	Central-nucleus	Medial-nucleus	Cortical-nucleus	Accessory-Basal-nucleus	Corticoamygdaloid-transitio	Anterior-amygdaloid-area-AAA	Paralaminar-nucleus
0	30	1851.31935	1012.57134	988.25589	1444.38113	572.02059	1512.10612	1174.4928	1265.2752	961.66615	1379.62489	524.60705	1970.78177	1214.09653	1761.69031	1213.35752	1655.45754	1093.36842	1538.54586	973.54832	1744.83746	2350.46201	1424.07701	1098.31297	1273.8576	1714.31339	1415.95377	1552.07462	2552.67103
30	60	10641.3926	8468.38896	6575.97031	9330.30364	7125.58156	9958.50239	8447.91189	7734.81242	7411.77175	9004.1528	7087.99263	12181.09688	8646.0888	10338.8704	7917.20421	9651.58383	7628.15802	9594.61471	7592.44442	10991.96925	12960.14845	11948.79271	10687.55827	10626.14338	13131.46044	12105.95978	10193.62817	11797.77619
60	90	16232.55464	17012.61724	12470.36958	16292.5858	13956.3765	17021.55622	15027.9085	15918.3005	12616.41436	15889.50031	14866.97493	22068.52079	18967.18247	19063.8382	16621.36104	17619.08859	15522.13542	17294.87186	15638.84656	18551.42217	22078.46195	30672.85598	23188.16667	22360.00914	21964.37192	19490.45566	20839.85989	18472.16785
90	120	26226.91946	25498.75933	20549.55633	26537.18867	22824.59792	27545.0603	24773.87529	27103.44368	23410.92582	27698.56781	26623.82902	33388.95596	29662.6122	29217.45779	26420.31609	27629.60921	25511.21319	28948.94095	26289.93943	30132.46666	34402.76426	48228.94107	39271.71875	37936.63361	38806.73491	33663.65981	33615.01227	30678.18129
120	150	29345.86437	28706.76306	28533.6668	33248.94929	26581.29551	31798.86955	31550.20121	32328.2727	28481.18513	33173.77426	30293.32866	42919.97872	36620.06694	38765.16843	34227.04527	35906.8679	32693.36784	35162.62128	32065.5115	35450.05555	39702.45968	56039.18122	48188.17969	44648.58683	45746.67859	38516.57406	36348.66046	32907.60464
150	180	31695.37467	33411.03834	27712.9661	35183.34524	28337.65017	34777.38701	35926.3928	36399.53357	29377.13184	36429.26953	29695.72438	46209.04769	34807.67958	40937.56383	31385.21672	37959.64477	30929.27276	38574.08517	31408.01586	34999.29874	41398.8299	60712.56267	54030.60938	52056.69744	48848.9098	42091.39673	40057.78394	37149.00521
180	240	34239.02559	35020.72884	29877.79454	34032.5093	29529.91522	35340.58961	35992.11593	33333.07134	27907.27003	34088.96844	30659.29829	45905.56468	37566.62842	37668.32509	33458.43842	36201.11363	32456.46701	36483.71739	32650.80374	35573.78444	38070.98346	54934.35275	50397.65104	48023.92223	46250.19125	42374.29397	38746.68848	32450.36518
240	300	30639.19114	39013.38303	27628.98614	33222.44553	27387.73808	33471.79187	36984.97515	32323.19956	27161.10135	34652.80293	27576.72721	45699.81578	34158.5913	37735.67403	30911.92736	36732.76663	30503.03029	36254.90598	30595.85337	34909.10468	34451.57435	50448.65532	44490.76693	43728.79545	43260.85292	40765.66881	37445.0188	31970.43383
300	360	26708.35107	34307.86115	27066.30655	29027.40437	25260.22924	29791.63692	33890.13792	31214.58505	25807.49589	30061.76577	26352.5926	37293.06637	32004.29353	30495.39543	28590.25255	29622.44317	28348.15809	31156.08515	28665.52386	33751.33168	33552.32175	46110.87661	44722.08203	43259.19886	40221.23703	37423.76418	35838.00269	31669.70478
360	480	26068.64552	31285.6076	25375.59488	26630.42079	23502.19016	27151.17059	31793.9749	29307.42551	23597.5958	27956.98118	23309.1921	33557.61907	27833.28391	27511.94623	25055.04567	27029.70384	25231.31115	28780.3615	25513.39033	30786.98999	29482.45428	43300.85037	38923.21224	39881.12198	36862.61405	34942.57562	30391.6405	28370.81173
480	600	21328.91029	28545.71267	23149.82507	23450.28539	21067.86134	23539.61172	29603.47747	26079.00236	23130.45709	23948.89708	21533.66509	27713.9973	23351.1203	22569.31774	23459.06524	22609.53703	23787.51043	24468.69641	23826.06102	29141.49486	25307.86944	34733.75161	33391.51302	33601.00151	31020.65963	29630.91935	25215.42334	26849.04551
600	900	19895.92672	23327.92658	21595.36801	18808.18897	16867.67429	21253.05604	22683.44465	22467.81536	19203.81174	19342.05962	17497.90287	18973.28581	19545.92766	16991.24388	18894.41787	17641.43999	19320.11706	19680.17892	19273.699	25216.80568	22048.02924	26485.08764	27571.57422	27312.65776	24569.79557	23247.70337	21796.89258	23281.08857
900	1200	16454.07705	18416.71596	18667.27243	16426.75318	14780.88716	17608.96266	18891.79998	18977.50613	17267.94113	16227.47299	16210.94177	15859.2525	17309.7103	14889.37219	17323.24569	15399.02303	17550.58119	16633.97501	17459.06203	19665.39187	18253.67862	22533.73425	21575.92839	22590.56055	20577.99277	19675.86227	16793.76004	18513.94747
1200	1500	13368.47871	16947.57699	16657.04506	14654.22961	13245.87123	15070.09696	15396.76005	15628.13164	15125.8798	14042.47775	15049.9086	14877.48653	16960.89764	13690.53561	15901.38294	13727.07035	15881.75095	14516.03796	15823.01562	17510.89592	15016.98942	19029.15982	19144.69661	20302.05478	17057.29402	17056.06273	14834.70145	14644.0804
1500	1800	12077.35188	15255.6837	15287.4231	12022.65349	12312.2719	12979.70311	12693.41376	13302.53132	12933.85302	12464.45052	12711.62204	12002.88217	14087.26641	11487.00738	12997.869	11831.3421	13228.04745	12527.77082	12968.03097	15018.21218	12510.26036	16546.50246	17635.43164	17739.97754	14397.53919	13950.37711	13112.92914	11723.75497
1800	2100	11074.92223	13762.22123	12605.98949	10855.67732	10867.95764	12079.21828	11020.03335	12107.31387	11253.12126	11362.47166	12217.31052	11151.96909	12883.12099	10352.29074	11890.04252	10788.43697	11929.87797	11466.88253	11899.79241	12171.33649	10386.66662	14093.54694	15417.45801	15804.735	12676.22672	12981.62132	9775.80899	10400.75158
2100	2400	9241.99393	12117.297	11617.71451	9633.53111	9601.16504	10000.44264	9847.20455	10141.4159	10681.77679	9745.34245	11164.88337	9521.73857	10709.86845	9636.7295	10055.96714	9769.14789	10339.14113	9819.30558	10355.05052	11084.66737	9979.88523	13423.3367	14188.53353	14176.52686	11411.53426	11294.67549	9548.60162	10008.66563
2400	2700	7811.71428	10049.13855	11953.4952	8470.8646	9528.41059	8197.29345	9446.46743	8371.70814	9341.66588	8645.4204	10116.02096	8258.04395	10595.14473	7899.54305	9834.81083	8147.79046	10041.26576	8276.10502	9749.10261	9612.36684	8260.48298	10723.99694	11773.37533	12225.34766	10222.12494	10540.36403	8054.44209	8012.16812
2700	3000	7133.80605	9777.52225	9508.50809	7767.39482	7791.52747	7292.88273	8150.84118	7357.28999	8552.44842	7733.38747	9471.30829	7735.28624	9600.19752	7470.2799	8659.01382	7579.95109	8697.16016	7295.6206	8725.20886	8510.51325	6544.4162	9545.14462	11155.27246	11379.55162	8756.67709	9550.15981	5870.64847	6398.27771
3000	3300	6165.97186	8730.98419	8949.47952	6497.04776	8112.75751	6078.3855	7495.54998	6892.9556	7974.01449	6776.39487	8865.70848	6900.93672	9521.38764	6434.3571	8144.02111	6587.14674	8266.90652	6586.50637	8341.64224	7261.4584	5595.27691	8361.4902	9220.75456	9684.60884	7444.16673	8693.53018	5855.16907	5659.76773
3300	3600	6644.61432	6949.54253	7186.41842	6497.22583	6660.7461	6598.5759	8236.13147	6382.12866	6881.97251	6600.49657	7176.45362	7127.30113	6736.57174	6199.63182	6359.94997	6406.75869	6628.50784	6298.40592	6789.67502	7418.71714	5956.80897	8591.82918	8872.63802	8959.40867	6459.06252	6703.76412	5269.058	6381.20786
3600	3900	5143.48665	6905.97199	7597.15739	6733.9966	6557.41652	6415.78727	5763.28174	6937.19369	7390.96468	6345.16054	8054.96423	6514.81932	7184.20297	7328.23669	6964.66288	7100.19819	7081.21496	6634.05895	7127.8141	5358.66081	4766.4857	6346.31925	8817.24886	8968.26236	5429.10765	5965.91622	4995.89671	4391.44877
3900	4200	4910.92741	6227.9748	7519.02962	6176.42691	6656.29632	5583.68773	6034.0787	5468.56245	6297.46034	5171.66452	6410.94176	6030.41039	6930.88027	6104.69709	6733.53697	5981.42487	6744.78175	5560.03802	6493.1405	5394.70285	4060.13549	5885.99544	6851.16195	6299.39229	4999.90771	5261.6968	5512.34163	4279.33084
4200	4500	4632.85935	5670.35436	5791.06214	4855.24322	5780.76096	4895.30064	4729.5413	4675.70767	5332.7604	5359.34105	6130.23679	5675.41756	6458.51971	5379.38013	5328.25882	5446.51081	5455.93687	5058.26996	5547.74321	4734.05375	4142.37073	5986.14056	7092.46582	7198.63426	5174.71726	4834.39331	4477.42577	3335.42581
4500	4800	3929.20589	5684.33198	4768.83228	4449.56307	5072.41068	4245.32957	5556.45688	4287.19711	5298.56678	4812.31945	6174.98801	3890.78362	4238.00767	4053.126	4349.28971	4268.56386	4693.00638	4507.98099	4854.53041	5087.63979	3917.32597	5610.22815	5436.21696	5693.19602	4579.22813	5091.73223	3698.96626	3148.92102
4800	5100	3871.92127	6090.39369	5142.2624	3675.58238	3852.56928	4098.33115	4789.93194	4130.46236	4044.77751	3977.37728	5669.25388	3661.03494	4547.06856	3266.68996	4215.48438	3516.83129	4429.24393	3655.4662	4600.43424	3696.72967	2677.3665	4863.92861	5840.50618	6742.80174	4278.7249	5100.21379	2645.90826	3017.51947
5100	5400	5756.74339	6495.20306	5094.58179	4186.43351	4712.10952	4837.76764	3509.20296	3922.28518	4696.15135	4364.63839	7132.19036	4033.9992	4948.6223	3825.40119	4317.93323	3994.58316	4484.66978	3944.5261	4730.08998	3750.54918	3715.48857	3368.22728	5283.64185	5454.79855	4600.8389	5576.89389	3610.08939	3392.62297
5400	5700	4435.60007	4677.1168	5320.09022	4338.1744	3930.87461	4364.97233	3828.80299	4328.22332	4114.16362	4255.94646	5372.98142	5090.99308	4854.67618	4263.33551	4492.89247	4397.80419	4452.33371	4396.38007	4435.2331	3335.28401	3034.39546	4579.50328	5211.21696	5112.20668	3672.76196	3922.88202	2589.58407	3317.89376
5700	6000	3004.7366	3080.47091	4590.08722	3379.43189	4044.65236	2972.15335	2891.2494	3925.22531	4502.94906	3686.96775	7072.5437	4009.96584	4955.05883	3900.92765	4690.65267	3947.05061	4773.77313	3686.26346	5255.08466	3160.98213	2436.47455	6771.19009	5968.4777	5182.95364	4117.16461	3157.2085	2337.62238	1798.22145
6000	6300	3904.91422	5500.63778	4686.0303	2569.01851	4269.91152	4011.07359	2443.71231	4214.06548	2627.1158	3663.13633	5316.40015	2479.89926	4334.2551	2322.16675	2971.38407	2796.9357	3167.91114	3256.88637	3411.62778	4012.08962	3003.83857	6079.06979	5580.84733	4896.23703	4672.89264	3975.91273	2939.55829	3004.30741
6300	6600	4570.56639	3039.69529	5616.49687	4654.35439	4463.13029	5138.02777	4643.52638	5209.63298	5100.96157	4041.33791	6347.78526	3292.21167	5009.61408	3286.26219	4606.80502	3440.41667	4724.16645	4375.92717	4973.37783	4101.35335	2606.30567	4904.36034	4493.58993	5704.69309	4236.70939	3831.42024	823.80716	3139.59712
6600	6900	3144.17688	4258.18162	4522.40578	3622.40914	4805.8798	2689.96971	4055.97212	2214.38173	4716.30067	2786.80427	5170.11568	4020.66278	4317.02188	3875.39437	4558.03993	3814.86486	4518.88106	2726.14132	4337.935	3084.49633	3123.20908	2127.7752	3800.03166	3873.08506	2850.92661	4129.5057	3514.34444	2277.13288
6900	7200	3415.97793	4004.56884	2667.9362	4747.03239	2843.65763	4462.26961	2601.75404	5314.22708	4208.30345	4007.21122	3986.12605	3440.63495	3283.59887	4027.82351	3242.11365	4339.29261	3181.8965	4654.45848	3401.67694	3112.76268	1962.49066	2045.83022	3496.0284	3551.32845	3426.48488	4599.83451	1149.33457	1615.31832
