frame_start	frame_end	parasubiculum	HATA	fimbria	hippocampal_fissure	HP_tail	presubiculum-head	presubiculum-body	subiculum-head	subiculum-body	CA1-head	CA1-body	CA3-head	CA3-body	CA4-head	CA4-body	GC-ML-DG-head	GC-ML-DG-body	molecular_layer_HP-head	molecular_layer_HP-body	Lateral-nucleus	Basal-nucleus	Central-nucleus	Medial-nucleus	Cortical-nucleus	Accessory-Basal-nucleus	Corticoamygdaloid-transitio	Anterior-amygdaloid-area-AAA	Paralaminar-nucleus
0	30	509.0078	780.94967	426.67095	405.5641	417.87619	468.74848	419.36091	567.78503	556.10657	423.47785	468.15742	479.16629	435.99639	367.98874	530.82183	385.43057	502.0755	363.88039	500.21998	250.82854	363.63463	310.46515	506.60943	445.83979	481.80119	625.47525	816.04691	369.43845
30	60	5622.68954	6960.29345	6616.99683	6053.43877	6561.67867	5367.01243	6344.74384	5378.24802	5670.22129	5365.03584	5296.3111	6750.35792	5789.48174	6493.28797	5602.86033	5961.83967	5667.19662	5392.51375	5605.2542	4757.14449	6001.56033	5456.04045	6320.62681	6869.88327	6607.38032	7329.41009	8813.86271	5652.28988
60	90	11849.43444	12713.84064	16914.98876	13390.39309	15389.77242	12434.76572	13736.15797	12930.77845	15395.44814	12825.63601	13480.11983	15256.57547	14992.38182	15077.78768	15189.13888	13914.78282	15275.13399	13434.72736	14660.077	10798.47885	13241.71647	14410.48503	14461.00391	14227.18365	14690.46658	12544.17468	12661.57216	12683.10742
90	120	21365.00508	24934.05735	24820.26554	20102.1879	23170.71343	20350.85697	20072.42338	20681.91946	21921.46808	20419.52568	20031.86213	22353.11502	23065.94455	18502.56769	23144.64749	19619.87927	23033.07814	20324.92934	22204.64773	17090.38168	18962.78084	25685.88159	25655.13449	27041.97917	24217.65945	21440.48626	17466.58444	21500.93872
120	150	24494.64262	25448.68945	31376.49244	26169.56181	27318.26529	27102.35769	25825.75783	27075.71588	28879.13326	25590.86103	26969.91189	27849.61696	30394.57899	24947.31928	30118.67249	25243.377	29712.50282	26871.3322	28957.75569	24046.84423	26295.20835	31646.67533	29051.47405	29902.48188	31091.14118	24231.00637	24952.02002	24926.37107
150	180	24064.06926	25857.21631	28619.12591	28712.0276	28270.89135	26449.72528	26374.90042	28604.1125	29867.17943	27417.62872	25560.11745	31147.45656	26851.88913	29943.55731	29007.66393	28927.29428	28610.13541	28667.80297	27613.74022	24532.06574	26754.33019	26797.01632	23721.69141	24213.17904	29102.55501	24775.47331	22028.93119	27008.03863
180	240	23472.23762	25561.09166	30923.5463	27808.88771	28509.46276	25974.44334	25341.78661	28340.38872	29510.51061	27444.45555	27545.65462	31500.99025	29665.16539	30023.46079	30321.92844	29364.92547	30004.42028	28795.63231	28801.26231	24748.68211	27446.64838	29260.25769	25280.31306	26325.59277	29321.87093	23586.87625	27747.62584	26452.91395
240	300	22017.25152	23903.55493	28807.31902	27639.40333	27514.90787	27039.27033	26019.6091	29110.26534	28056.35979	26959.61821	24399.58311	28239.55301	27093.75732	27580.51161	28226.02452	27143.58577	28055.03037	28341.34755	27148.09936	25564.69781	29845.9717	27539.1335	24577.63867	25090.23242	29759.84136	23418.79746	27868.73228	28869.27745
300	360	21516.74002	25553.02335	27275.20909	25379.66198	25711.59049	25214.23582	24304.92656	25830.99805	28855.56334	24801.8947	24738.39114	29615.88854	25683.56779	27359.80545	28346.39347	26225.15403	28104.67977	26802.03722	26781.75693	23596.6773	28214.04896	25397.79858	22417.95982	23703.38021	27555.42171	23451.26602	25825.44936	27417.91347
360	480	19768.04277	21835.33751	27937.10134	25257.63698	25461.40518	23452.33956	24647.70042	25560.9651	28231.77601	23987.47722	23971.16107	25489.93374	25789.22019	25033.60347	27889.84321	24419.86617	27611.35227	25285.12394	26549.45417	24412.41531	25942.8752	25042.2157	23055.91602	23526.02626	25203.33932	20777.66641	24648.12367	24413.68606
480	600	20051.52141	21821.68972	25266.25679	24379.19651	24092.7428	24299.23312	23991.83366	27222.26867	25911.48752	23811.31086	21205.78697	24454.54854	22359.70483	24753.63404	23986.17396	24147.05861	23996.69023	25440.90515	23070.06691	25875.60028	26205.26735	22281.0697	22067.89118	22434.83377	26241.1631	23113.50373	27850.92236	24335.20432
600	900	20032.0724	21170.17072	25262.26274	23404.94538	22452.24177	23108.20614	22344.78905	24499.90583	25972.62188	22776.14622	22987.01744	24209.05618	23548.48006	23935.27266	25445.97563	23097.49167	25203.27677	24217.14064	24301.86193	24721.71393	25134.02741	23725.01904	22930.68108	23130.82498	24944.37201	21701.23962	25156.28404	23752.19691
900	1200	17809.93662	20289.93353	23164.51076	21627.83656	21190.40766	21737.59083	21577.18808	23628.83596	23282.73939	21204.56423	20529.54508	21825.59961	21058.64762	21685.04203	22316.26023	21342.64652	22367.83547	22419.77789	21766.97826	23769.5825	23110.21767	22616.84737	22211.10407	21933.51595	22629.11519	19787.51734	23137.83852	22104.30219
1200	1500	17774.96111	19291.03094	22125.19716	20571.03554	19860.23022	19949.50316	19567.4454	21807.71786	21797.45936	19981.25323	18801.47551	19972.02013	20527.79728	20172.70872	21401.42228	20084.22964	21186.33127	20596.20233	20526.10997	21450.92421	19897.68085	19418.68803	19861.30943	19433.62446	19523.46556	18313.24371	20043.7688	19806.99759
1500	1800	14865.90824	17667.67336	19276.52494	17719.46367	17501.49574	17817.73859	17578.86545	19557.2654	19442.49881	17345.89923	18007.60983	17011.01576	18489.88778	17690.57761	18516.2851	17658.50171	18554.00847	17979.63053	18369.89349	20594.27584	18834.05779	19577.70256	18509.93555	18487.93294	18306.28899	16377.714	20073.46878	17879.44775
1800	2100	12761.1642	16310.5477	18443.37547	15603.12735	16024.83656	15508.17518	16041.53622	17300.43434	17608.8637	15428.44802	16895.59824	15172.10148	17437.06704	15702.97005	17220.29667	15709.95	17430.45802	16068.26209	17167.72168	18961.27378	15882.69433	17625.74947	17807.82952	17721.22928	15825.79584	14900.89557	18105.6498	15497.85354
2100	2400	12514.54785	13204.01898	17149.87962	14441.79832	14255.35725	14389.50208	14457.64177	15495.8964	15309.11755	13957.55228	14950.05889	15030.65854	16423.7374	13968.51913	15669.87476	14143.07884	15585.46282	14456.64617	15243.41675	16646.92916	15432.177	16933.9007	16519.25586	16559.62305	14833.43419	13373.94929	14299.52633	14609.34386
2400	2700	13180.00094	14150.26838	14918.98076	13090.07728	13457.34457	14647.56824	13022.41663	14787.13963	15050.874	13514.22189	14526.6511	12111.40662	14463.9922	12087.70819	14211.61314	12632.20338	14449.18035	13513.3476	14300.21296	15229.39444	14086.50995	13900.17373	14608.52455	13903.4758	14102.15164	14557.42847	13934.45183	13649.06722
2700	3000	9084.6923	13228.0876	14893.26586	11696.94929	11664.00787	10539.10706	13380.61678	12654.37587	14131.21056	11650.80588	14408.07655	12620.74923	15021.01529	11667.65	13981.03129	11478.18099	14114.28173	11765.39147	14165.8549	14303.68396	11468.13807	15059.48431	15662.7846	15716.19103	13267.64899	12541.42897	13465.6566	9823.62519
3000	3300	9378.5149	12513.72725	12967.03861	10682.67373	11740.81488	9713.32414	12133.27158	11621.01124	12614.93428	10750.48213	12611.87194	12364.16943	13372.17799	10644.87486	12461.49038	10744.1377	12347.22551	10525.42071	12541.28197	12589.16943	10179.71586	12723.60038	13757.53823	13563.92361	11244.58084	10851.8587	12915.06888	9440.09881
3300	3600	8337.40196	11848.94391	12858.46618	10438.20262	10692.59816	9239.91876	11351.83232	11110.44922	12045.24648	9847.90896	12961.91519	10753.47797	13554.67527	9443.57061	12470.63813	9793.83147	12397.52801	9859.44529	12598.21105	10915.78265	9149.51468	14326.98551	14006.33901	13740.89133	10383.15874	10436.06536	9589.83301	9004.24559
3600	3900	7199.898	10249.44804	11118.90468	8681.17828	9572.48074	8145.75659	9666.98437	10145.66326	11129.22888	9444.44133	10812.00179	8382.4829	11623.7157	7804.7266	10037.80339	8474.9278	10260.44362	8603.10193	10496.48929	9602.4907	9110.24654	12168.82656	12407.85212	11881.63135	10400.46568	10133.58206	9207.88496	8772.81076
3900	4200	7674.27385	11777.76085	11507.3522	8334.99543	9709.98861	8229.82683	8912.83811	8044.47807	9232.41424	8280.26157	10261.3736	9892.46678	11319.78113	7852.94164	9758.78178	8355.87024	9890.88528	7934.05988	9913.1142	9588.64119	8145.57774	9927.21958	10182.21331	9907.49463	9373.2069	10199.14475	8142.24067	6902.06495
4200	4500	6748.67354	11486.87425	9134.65804	7302.46043	9664.58323	7207.23681	7610.60149	7377.76931	9074.93246	8498.30755	9360.86608	9083.02956	9782.07717	7866.83123	8862.73988	8243.96622	8772.68346	7690.46954	8911.97856	8326.42479	7494.21913	9653.76796	9208.33873	9391.61523	9521.30098	9966.69377	7304.00303	7042.56418
4500	4800	6502.48835	12924.38133	10340.91141	7193.01076	8492.07111	7700.85821	7723.96597	9090.28518	9165.44603	7637.9734	8914.62561	7463.53653	10632.84717	5772.04118	9794.3875	6416.78632	9646.85862	7175.04331	9499.82545	7786.65557	7164.9347	7935.11077	10656.9541	11655.38726	10374.15892	11589.3868	7988.23066	6569.20211
4800	5100	6098.86628	10882.98085	9805.36264	6971.76116	7763.71799	6178.97917	7266.2791	6940.81812	8357.58159	7144.28822	8872.02481	8242.50325	9670.45213	6741.57083	8689.62072	7115.90531	8716.67962	6518.69733	8589.08741	6414.79256	6321.39749	8237.77559	8456.04681	8852.81985	7973.27655	8436.4319	6931.00103	5529.86774
5100	5400	4811.46555	9865.09547	7945.3551	6539.40256	7820.1142	6572.83431	7591.91578	7817.03769	7204.12337	6793.71079	6553.78103	8140.28628	7747.78313	5571.76232	7093.57568	5950.85314	7219.03915	6929.53328	7232.07213	6759.55056	5845.89345	8043.39469	8323.08496	8394.86456	8052.75943	8157.59283	6865.3348	5509.41347
