frame_start	frame_end	Left-Cerebral-White-Matter	Left-Cerebellum-White-Matter	Left-Cerebellum-Cortex	Left-Thalamus	Left-Caudate	Left-Putamen	Left-Pallidum	Brain-Stem	Left-Hippocampus	Left-Amygdala	CSF	Left-Accumbens-area	Left-VentralDC	Left-choroid-plexus	Right-Cerebral-White-Matter	Right-Cerebellum-White-Matter	Right-Cerebellum-Cortex	Right-Thalamus	Right-Caudate	Right-Putamen	Right-Pallidum	Right-Hippocampus	Right-Amygdala	Right-Accumbens-area	Right-VentralDC	Right-choroid-plexus	AirCavity	Skull	Vermis	Pons	CSF-ExtraCerebral	Head-ExtraCerebral	ctx-lh-bankssts	ctx-lh-caudalanteriorcingulate	ctx-lh-caudalmiddlefrontal	ctx-lh-cuneus	ctx-lh-entorhinal	ctx-lh-fusiform	ctx-lh-inferiorparietal	ctx-lh-inferiortemporal	ctx-lh-isthmuscingulate	ctx-lh-lateraloccipital	ctx-lh-lateralorbitofrontal	ctx-lh-lingual	ctx-lh-medialorbitofrontal	ctx-lh-middletemporal	ctx-lh-parahippocampal	ctx-lh-paracentral	ctx-lh-parsopercularis	ctx-lh-parsorbitalis	ctx-lh-parstriangularis	ctx-lh-pericalcarine	ctx-lh-postcentral	ctx-lh-posteriorcingulate	ctx-lh-precentral	ctx-lh-precuneus	ctx-lh-rostralanteriorcingulate	ctx-lh-rostralmiddlefrontal	ctx-lh-superiorfrontal	ctx-lh-superiorparietal	ctx-lh-superiortemporal	ctx-lh-supramarginal	ctx-lh-frontalpole	ctx-lh-temporalpole	ctx-lh-transversetemporal	ctx-lh-insula	ctx-rh-bankssts	ctx-rh-caudalanteriorcingulate	ctx-rh-caudalmiddlefrontal	ctx-rh-cuneus	ctx-rh-entorhinal	ctx-rh-fusiform	ctx-rh-inferiorparietal	ctx-rh-inferiortemporal	ctx-rh-isthmuscingulate	ctx-rh-lateraloccipital	ctx-rh-lateralorbitofrontal	ctx-rh-lingual	ctx-rh-medialorbitofrontal	ctx-rh-middletemporal	ctx-rh-parahippocampal	ctx-rh-paracentral	ctx-rh-parsopercularis	ctx-rh-parsorbitalis	ctx-rh-parstriangularis	ctx-rh-pericalcarine	ctx-rh-postcentral	ctx-rh-posteriorcingulate	ctx-rh-precentral	ctx-rh-precuneus	ctx-rh-rostralanteriorcingulate	ctx-rh-rostralmiddlefrontal	ctx-rh-superiorfrontal	ctx-rh-superiorparietal	ctx-rh-superiortemporal	ctx-rh-supramarginal	ctx-rh-frontalpole	ctx-rh-temporalpole	ctx-rh-transversetemporal	ctx-rh-insula
0	30	33.10344314575195	59.48736572265625	0.2862323820590973	58.065799713134766	43.53312301635742	-9.495274543762207	7.59650182723999	102.62767028808594	210.91046142578125	662.0415649414062	32.61057662963867	783.5527954101562	32.45547103881836	-360.76025390625	40.237648010253906	119.7073745727539	63.3798828125	118.01010131835938	128.47784423828125	-0.32982462644577026	191.31552124023438	21.58612823486328	-91.83757019042969	-193.1013641357422	84.95364379882812	-152.15643310546875	66.63158416748047	85.7648696899414	-47.95713424682617	-29.888900756835938	-12.916136741638184	44.59348678588867	31.5426082611084	25.563018798828125	84.42166137695312	17.616832733154297	575.2822875976562	130.0408172607422	21.00435447692871	-44.16976547241211	73.85556030273438	20.318803787231445	139.07098388671875	124.74655151367188	80.74124908447266	-7.154595375061035	-20.28934097290039	74.7776107788086	66.60191345214844	-97.01761627197266	42.7336311340332	86.02960205078125	89.90633392333984	29.890213012695312	-45.69289016723633	92.52262115478516	195.63168334960938	35.815120697021484	72.2096176147461	31.237836837768555	106.52318572998047	12.33083438873291	-84.78535461425781	329.58251953125	-99.73102569580078	552.082763671875	-8.110325813293457	73.98192596435547	-23.241840362548828	45.568870544433594	689.237548828125	87.8663558959961	60.59263229370117	87.03475952148438	264.7008361816406	-4.265347003936768	91.51431274414062	106.26378631591797	202.2324676513672	103.21939086914062	81.41046905517578	90.08545684814453	67.46942138671875	70.14083099365234	234.3293914794922	206.92242431640625	65.11943817138672	-8.973437309265137	58.53667068481445	78.84114837646484	126.77626037597656	69.51065063476562	145.2093963623047	17.73234748840332	82.2669677734375	119.77706909179688	10.006782531738281	108.87178039550781	-153.45692443847656	317.74737548828125
30	60	1472.5426025390625	1036.7879638671875	5440.3251953125	7047.166015625	8443.779296875	11753.869140625	173.4323272705078	4426.98779296875	7677.22314453125	-2181.41357421875	4365.70703125	9952.8876953125	1645.376708984375	-9276.79296875	1437.1964111328125	1430.443359375	5777.41650390625	6059.7373046875	9398.69921875	9052.720703125	-364.53070068359375	7734.28076171875	47.29250717163086	9536.0830078125	3797.837890625	22534.71484375	1471.841552734375	2650.736083984375	19836.08984375	4247.70556640625	5060.9501953125	616.7772827148438	4422.3857421875	2141.44384765625	9391.125	11242.3291015625	8202.359375	12194.9072265625	5905.91552734375	6809.26416015625	8017.1884765625	4689.7509765625	10856.630859375	8092.35595703125	7614.9931640625	5234.7978515625	6238.12109375	8032.27001953125	10217.49609375	4588.4482421875	9122.9306640625	12259.7578125	8334.056640625	5346.939453125	6555.51025390625	8140.48779296875	9657.80078125	8737.3427734375	8623.9873046875	6639.45068359375	7563.908203125	7161.3759765625	12561.453125	10950.9921875	1885.77587890625	6371.0458984375	8698.5380859375	2557.858642578125	7215.61962890625	11801.2353515625	5319.11279296875	8175.43359375	6294.2509765625	9073.0751953125	5376.2587890625	9348.9033203125	11455.2021484375	8159.4638671875	8626.212890625	3025.668212890625	177.38963317871094	6382.0751953125	7799.32177734375	4166.7333984375	9352.416015625	8889.99609375	7499.94287109375	9879.74609375	7107.3740234375	10972.435546875	1239.728515625	8356.4072265625	8719.5810546875	5777.90966796875	6219.2021484375	8416.1708984375	4336.29052734375	9966.857421875	8404.986328125	8301.19140625
60	90	4720.81787109375	2325.255126953125	19495.33203125	21239.6640625	29167.546875	36950.21484375	-5983.236328125	11550.2490234375	24581.416015625	-6237.58154296875	15312.1279296875	4745.57958984375	7713.9921875	5470.74560546875	4507.92578125	4333.2431640625	20807.0703125	19860.009765625	30139.673828125	29632.75	701.3881225585938	31281.447265625	1755.0506591796875	13616.099609375	10214.875	84258.0234375	3878.369384765625	6991.69580078125	50390.52734375	17455.361328125	14950.8271484375	2159.516357421875	17523.48046875	2075.0302734375	29679.96875	34406.0625	7093.42919921875	41929.42578125	18981.6328125	22016.08984375	20390.65625	14662.3623046875	30743.26953125	26213.90234375	27049.828125	20438.80859375	10943.6494140625	26176.126953125	30084.271484375	14918.4384765625	32437.12890625	37936.39453125	29095.0625	18768.248046875	21280.13671875	26493.259765625	25534.30078125	29419.48828125	26352.291015625	20497.38671875	25487.775390625	23562.896484375	48869.29296875	42616.65625	12229.939453125	18869.0390625	29325.99609375	14082.763671875	23338.15625	36320.8125	10894.0869140625	26827.583984375	20776.5859375	25850.865234375	14017.98046875	26960.767578125	35833.12109375	26584.380859375	27575.541015625	16660.39453125	-12152.6220703125	20291.83203125	27586.53515625	17059.46875	27273.06640625	38847.78515625	25154.568359375	28504.42578125	21870.4609375	35537.57421875	6583.916015625	27785.509765625	27608.296875	19460.384765625	22911.248046875	27153.75390625	20862.380859375	28934.3125	19889.029296875	23172.66796875
90	120	8494.361328125	2442.019775390625	35602.43359375	39257.1171875	52526.75390625	63852.359375	-9800.5263671875	21621.3125	37626.3359375	26165.111328125	21762.537109375	14531.2724609375	10011.9423828125	29857.875	8102.7021484375	2956.502685546875	38089.44921875	35321.91796875	51834.171875	58693.9765625	-7625.5615234375	50537.203125	9572.392578125	21352.26953125	15795.36328125	157640.796875	6257.0234375	10902.107421875	70275.734375	31397.1328125	24132.646484375	3792.162841796875	31365.919921875	3992.232666015625	52282.8515625	55301.3046875	29470.904296875	70512.1953125	36349.69921875	39044.58203125	32910.671875	28593.07421875	54722.85546875	43385.69921875	45302.9140625	38756.078125	31079.390625	40760.87109375	52750.5703125	26365.185546875	57506.7421875	69242.6953125	46595.2734375	31853.314453125	41129.44140625	46426.65234375	40877.046875	53573.51953125	46329.16015625	34660.734375	42731.41796875	39961.34765625	83358.3828125	69595.8359375	14330.3193359375	35962.43359375	47530.35546875	14729.3876953125	40791.37890625	62374.71875	5922.2265625	49724.28515625	38020.0	45584.24609375	33532.23828125	44984.1953125	56537.25	44970.69140625	48149.70703125	36003.171875	-15606.3486328125	40906.3359375	49476.99609375	31165.85546875	48513.57421875	65171.53515625	45770.6875	43238.23828125	37592.0546875	57522.41796875	17532.55078125	50875.04296875	50337.234375	36437.82421875	40665.890625	47376.81640625	41556.61328125	52186.0703125	30217.306640625	34297.93359375
120	150	11561.453125	2341.0126953125	50144.40625	53710.5390625	77286.671875	83096.2578125	-9659.77734375	29244.57421875	43872.34765625	2933.278076171875	31077.77734375	-16380.0791015625	15215.0361328125	10720.9189453125	10650.9765625	5674.6953125	51775.8828125	48608.3671875	75086.09375	80278.796875	-5559.04638671875	71465.7109375	23813.63671875	-19405.658203125	19867.3203125	168207.53125	7045.75537109375	13591.08203125	117565.3359375	45754.3984375	29999.611328125	5126.23486328125	37315.19921875	12569.537109375	71341.796875	67965.125	34634.859375	99192.796875	47839.37890625	53238.46484375	57049.34765625	37562.9296875	70243.7109375	57035.44140625	61397.57421875	58017.7421875	41583.15234375	56897.91796875	69327.8203125	40017.2734375	75435.3046875	94962.6015625	66516.7734375	38039.375	52968.14453125	62681.06640625	54303.0546875	73522.0390625	61575.32421875	49458.4921875	59078.77734375	55915.50390625	110335.3359375	88266.7265625	21119.310546875	51547.30859375	58030.65625	22424.240234375	57419.6875	82264.1796875	11521.283203125	68272.5234375	50944.953125	64283.68359375	31510.537109375	58626.75	75202.8984375	63455.09765625	74233.1484375	51420.6015625	-22386.771484375	53491.69921875	61967.4296875	45907.79296875	67441.46875	89876.171875	62470.625	60274.59375	53434.24609375	78731.484375	28235.314453125	69814.7421875	67939.59375	51050.78515625	56440.53125	62378.72265625	53921.19921875	64335.48828125	56951.62109375	44153.38671875
150	180	12729.0859375	-727.9585571289062	54550.9140625	57903.2734375	83285.4921875	95404.65625	-15680.8212890625	29317.572265625	53135.453125	-7977.6025390625	29898.638671875	-1856.783203125	17777.009765625	38278.84375	11710.3603515625	2148.91748046875	56889.55859375	52821.94921875	79537.703125	83957.0	-10189.0498046875	79569.5	36213.88671875	-1311.9259033203125	14064.8798828125	170903.671875	6840.8564453125	13667.060546875	129030.4453125	49603.12109375	29225.736328125	5552.62939453125	45549.37109375	8697.8359375	77596.34375	67741.7890625	31492.474609375	103289.546875	53230.2421875	53856.5703125	55387.796875	41015.74609375	73343.953125	57325.01953125	63645.06640625	60150.640625	49074.421875	65822.8984375	74704.2734375	37770.703125	79889.84375	99069.3515625	73502.328125	37744.6953125	56971.99609375	63592.36328125	57821.82421875	78061.828125	66582.84375	51438.890625	66107.75	58143.66015625	118620.1875	99278.0859375	26720.54296875	51345.43359375	64326.76953125	23938.666015625	61531.08203125	87353.765625	2184.615234375	74503.640625	56427.04296875	66249.8046875	44422.984375	57996.0078125	77457.4140625	60206.26953125	76587.0625	57952.33203125	-18339.783203125	57613.09765625	69171.9375	46989.48828125	66248.9765625	95210.390625	69019.4375	68606.4609375	55614.140625	83199.125	20883.3515625	74917.0859375	70812.3828125	55039.97265625	61856.82421875	64166.05859375	60190.0625	76495.328125	55035.70703125	52706.546875
180	240	12818.5849609375	265.9402770996094	53602.2421875	58950.83203125	86302.1953125	91307.65625	-12270.3369140625	30315.455078125	47372.75	20918.34765625	27434.779296875	-16713.646484375	17501.0390625	-1792.8206787109375	11918.5693359375	3102.501953125	56904.7421875	54440.828125	80862.984375	86883.1953125	-14174.6552734375	71062.1796875	46172.02734375	26011.650390625	15924.435546875	197278.828125	6504.99267578125	13708.705078125	127897.765625	47842.30078125	26604.498046875	6055.63525390625	46336.2265625	13206.1435546875	77630.796875	65594.3671875	38404.8046875	106042.5	53114.08203125	57424.41015625	57486.3046875	39183.7421875	71842.1171875	59482.48828125	66563.9453125	61760.2109375	52731.1796875	62043.57421875	74131.984375	43586.6796875	82132.4921875	92534.0	72321.6953125	42872.0703125	57212.23828125	64811.23046875	58256.68359375	79768.1171875	66101.28125	53038.9140625	65383.94921875	59145.44921875	109357.2421875	99209.734375	29137.80078125	53858.18359375	61712.28515625	25218.349609375	63183.578125	82454.671875	7318.39404296875	73635.6171875	57158.3359375	65271.234375	39455.3125	56511.546875	77516.9921875	62855.56640625	70173.9140625	59835.50390625	-19550.083984375	60745.91015625	67871.5234375	52722.26171875	68878.8828125	86651.171875	70055.5078125	60912.609375	56502.734375	82009.453125	25746.16015625	74372.484375	72120.8515625	55794.60546875	63244.140625	64992.02734375	62389.65625	71050.5859375	46885.08984375	52087.6796875
240	300	12633.2099609375	-1342.648681640625	51174.19140625	58244.578125	85090.046875	84502.59375	-12792.140625	30110.197265625	34473.14453125	46720.12109375	23421.396484375	-5879.4736328125	18210.94140625	-26251.9765625	11654.4501953125	498.02362060546875	54535.6015625	52837.33984375	77575.171875	79855.2421875	-5862.18505859375	69416.8359375	41329.46875	19009.79296875	17419.671875	176619.09375	6672.77001953125	12921.6865234375	112889.4609375	45514.92578125	22252.169921875	6189.44287109375	46588.2421875	20145.037109375	73114.7734375	55963.86328125	49235.98046875	94697.2109375	49203.875	55137.83984375	49919.03125	35850.04296875	67409.53125	54470.2578125	60599.1875	61310.4375	61415.8203125	58768.41015625	70812.125	41972.58203125	72430.1796875	86286.0703125	69169.5390625	38595.01953125	55174.8046875	59594.51171875	51863.61328125	74054.7109375	63229.9765625	51661.76171875	61974.97265625	56551.75	106078.0859375	100365.5859375	31517.80859375	54304.625	61053.2578125	28003.150390625	60234.23046875	73122.5703125	-257.6134338378906	71615.328125	54493.57421875	61613.03515625	41502.8359375	52159.72265625	70312.8203125	56908.18359375	71242.9375	59418.23046875	-7817.77978515625	57298.75390625	64194.09765625	49729.3984375	64621.05859375	79312.7265625	66766.890625	56535.39453125	54857.8125	73535.3359375	26610.041015625	70676.9453125	69669.453125	54242.3125	61527.5859375	59976.86328125	60691.94140625	74316.484375	48444.30078125	50983.33203125
300	360	12536.501953125	778.3121948242188	47884.4296875	55313.22265625	79112.359375	77071.1328125	-6569.6591796875	29403.7890625	31129.357421875	50123.859375	17892.71484375	-9786.0771484375	21174.978515625	40399.66796875	12175.73046875	5930.80517578125	49183.91015625	50737.1015625	69338.5078125	72063.203125	-6128.14013671875	68583.5	53349.6171875	27266.44921875	14984.482421875	130833.0859375	6673.4677734375	12255.947265625	87424.9609375	41111.8671875	19009.177734375	6398.4189453125	43729.41015625	18772.833984375	65014.38671875	49379.2578125	55641.78515625	88296.7265625	44762.33984375	50251.80859375	49502.59375	30161.30078125	57737.68359375	48958.1328125	57385.30859375	55416.12109375	52083.84375	52623.45703125	63417.12890625	36898.66015625	64880.046875	73683.8203125	62325.66796875	38018.63671875	51722.37890625	52424.2421875	50953.83984375	66969.4375	57611.546875	46322.5078125	58380.05078125	50033.57421875	92736.96875	96400.9140625	23863.783203125	52968.23828125	54025.89453125	26182.328125	55220.76171875	64534.125	9531.0458984375	63424.421875	48608.4453125	56646.15625	33759.03125	45307.546875	63545.46875	54652.94921875	63188.1875	56601.41015625	-12552.2412109375	52559.3671875	58375.0	48465.9296875	57675.6640625	65126.1875	59443.3359375	49460.125	50308.0078125	63284.89453125	26019.80859375	63073.3671875	61721.421875	48786.3515625	55928.6328125	54943.78125	51400.5703125	70278.8515625	40881.85546875	48731.24609375
360	480	12518.7431640625	2722.5439453125	41763.71875	50654.64453125	68136.9453125	63847.35546875	5208.701171875	27756.830078125	20321.119140625	43730.34765625	13106.8193359375	14040.9423828125	21243.322265625	61744.86328125	12195.51953125	3311.669921875	44531.49609375	48135.7109375	59164.03515625	62818.546875	803.6100463867188	55388.41796875	53060.07421875	36805.125	14395.8671875	104577.203125	6513.71533203125	11391.158203125	74442.0546875	37622.27734375	14435.330078125	6785.8212890625	39182.37890625	26512.427734375	56396.1875	39886.05859375	42617.91015625	72450.8671875	37742.2265625	45854.4296875	40208.6796875	25477.966796875	51793.765625	43793.546875	49796.41796875	48532.66796875	52360.8671875	46542.79296875	55370.1171875	33563.28125	56006.19140625	60282.33203125	54239.421875	33640.4921875	44123.93359375	45560.13671875	46162.93359375	57301.0703125	50276.51953125	39990.91015625	51746.375	43085.9765625	75426.796875	95582.3046875	20850.794921875	49322.25390625	48743.39453125	25426.265625	48423.9609375	53732.0234375	7499.666015625	54753.72265625	42814.30859375	49177.85546875	33518.3515625	39152.3515625	56029.14453125	45667.734375	56345.48828125	51249.32421875	943.118896484375	41590.3359375	48758.9375	41419.625	49935.0078125	54411.578125	52196.1484375	43822.90625	44642.296875	54906.53515625	27831.947265625	55437.421875	53740.88671875	42463.99609375	49726.96875	46272.4453125	39763.86328125	62731.88671875	37129.66015625	42865.7734375
480	600	12561.6220703125	3722.904296875	36206.1640625	43238.59375	55721.75	51587.21875	10996.595703125	25320.12109375	12906.0986328125	55725.875	10883.1826171875	4022.7998046875	21887.044921875	65692.8125	12245.7451171875	6201.8359375	37406.63671875	41003.9375	47836.23828125	48838.41796875	9523.3017578125	46239.859375	47148.79296875	42437.32421875	14392.8212890625	79550.5859375	6334.85302734375	10466.482421875	44804.32421875	32340.08984375	10841.3076171875	7237.37744140625	31353.6328125	19718.853515625	44255.1484375	31961.818359375	37755.38671875	58072.234375	31330.955078125	36756.046875	32763.5078125	21169.974609375	42566.62109375	34939.0078125	42856.72265625	41176.97265625	53186.23828125	36359.92578125	44848.05078125	23643.09765625	45785.87109375	45243.80859375	42297.03125	27112.16015625	36410.26171875	36006.7890625	40901.20703125	46986.1953125	41139.19921875	31716.822265625	43664.3828125	34195.1796875	55262.390625	86554.0703125	17349.453125	44896.94140625	40882.421875	25507.234375	38214.37109375	42538.68359375	9994.3154296875	44046.58203125	35530.04296875	41127.79296875	26144.85546875	31111.373046875	47031.90625	35980.1328125	46898.37109375	43968.87109375	5396.78369140625	33965.75	41933.515625	30600.267578125	39675.7421875	43366.9375	41246.89453125	34851.58203125	37180.71875	42452.984375	26356.611328125	45726.24609375	44213.9765625	35393.66015625	42969.0625	38072.33203125	27320.67578125	61223.8359375	25703.005859375	41534.87890625
600	900	13565.451171875	8431.2333984375	27099.087890625	34620.40625	38550.609375	35383.41796875	16907.640625	23801.197265625	10766.6689453125	60755.0234375	2945.902099609375	16661.41796875	25031.34765625	85539.15625	13481.2333984375	9914.666015625	28777.02734375	33670.7265625	34943.76171875	34768.359375	15037.568359375	31711.244140625	44710.8671875	34681.1875	18197.62109375	36801.6015625	6296.57421875	9961.6630859375	35144.9609375	25370.515625	5122.2060546875	7081.88525390625	27174.1328125	25676.044921875	34235.265625	26527.05859375	50537.45703125	41958.25390625	22291.431640625	29650.837890625	26324.818359375	16020.5859375	32344.7265625	28252.50390625	33001.49609375	32208.501953125	39210.19921875	28111.37890625	35069.1875	23869.248046875	33380.16796875	31304.822265625	30265.357421875	25059.57421875	29181.767578125	28330.287109375	35194.84375	35183.6796875	32321.779296875	24058.267578125	35340.55078125	27195.216796875	39698.03515625	72519.5859375	23359.18359375	37776.58984375	31709.623046875	26972.677734375	28579.107421875	30129.697265625	22391.708984375	31346.71875	27672.990234375	35032.8984375	26338.87890625	25344.501953125	35502.203125	30187.384765625	36876.23828125	36441.578125	13733.052734375	27831.677734375	32826.03125	30026.423828125	31012.669921875	28912.15234375	30090.220703125	30483.09375	30050.275390625	33159.62109375	24535.001953125	34549.99609375	34612.0078125	27507.396484375	35301.8671875	30061.23828125	22474.072265625	48626.54296875	27223.49609375	36431.6328125
900	1200	13520.5126953125	10206.0126953125	22060.708984375	28923.63671875	28713.564453125	24691.958984375	22563.2265625	22301.193359375	2293.146728515625	37261.68359375	-2318.655517578125	20124.455078125	26972.07421875	110398.171875	13375.72265625	11304.6259765625	23528.11328125	29087.822265625	25299.673828125	24431.185546875	19815.7578125	27401.962890625	44975.93359375	39379.23046875	18101.697265625	9339.9580078125	6568.04296875	9017.8740234375	14799.9462890625	21677.509765625	138.08787536621094	7425.7724609375	23784.0859375	27115.83203125	28444.14453125	23775.345703125	48909.80859375	32236.76171875	18487.560546875	30063.388671875	22292.228515625	15795.431640625	27292.681640625	24238.298828125	28020.365234375	26669.876953125	34823.4375	22192.443359375	29764.724609375	19819.353515625	27800.8671875	23803.96484375	24163.31640625	22493.875	24705.298828125	23907.45703125	28636.693359375	29431.44921875	28570.85546875	19731.33984375	30624.267578125	23067.06640625	27618.4765625	65864.8203125	25443.525390625	36123.3515625	27189.46875	27695.240234375	26145.83984375	23869.3046875	26704.4921875	25250.646484375	23890.14453125	32612.357421875	25386.783203125	24084.48046875	29237.015625	26255.099609375	32781.91015625	32348.599609375	16752.19921875	22550.64453125	29508.958984375	26367.04296875	26360.845703125	25574.46484375	25473.28515625	27100.14453125	25695.779296875	27010.3984375	25247.01171875	30246.458984375	30307.283203125	24203.26171875	30588.328125	26269.556640625	16973.4453125	40636.015625	26694.22265625	33797.8671875
1200	1500	14019.4912109375	12017.1748046875	19202.013671875	24268.85546875	21922.755859375	19852.296875	21954.072265625	19720.71875	4375.35107421875	39111.890625	-1102.1390380859375	2093.410888671875	24186.251953125	87400.5546875	13876.5244140625	13430.671875	20417.212890625	24199.015625	19137.04296875	19837.849609375	20795.98046875	20389.48828125	37689.97265625	23706.7265625	17333.8046875	12887.513671875	6153.13232421875	8800.2763671875	8239.025390625	19482.009765625	163.1311492919922	7977.15869140625	19970.267578125	22117.578125	24792.384765625	20507.6953125	46728.671875	28388.013671875	16566.77734375	26891.72265625	21134.91796875	12835.6494140625	24009.5703125	21718.333984375	25373.533203125	23794.57421875	27926.54296875	18283.23828125	27007.296875	17735.587890625	24191.3359375	22458.107421875	20593.849609375	21573.1953125	21534.53125	21461.669921875	24315.8359375	26138.412109375	24926.376953125	16805.8125	27471.208984375	20554.861328125	23492.634765625	54960.7421875	21582.91796875	31091.333984375	24288.8046875	22548.79296875	22346.748046875	23843.796875	21281.177734375	22462.265625	20692.013671875	27370.69921875	21305.796875	20996.1953125	26133.40234375	24031.271484375	29467.580078125	28904.380859375	17188.017578125	19225.9765625	24985.888671875	23969.75	23529.302734375	22515.119140625	21821.814453125	24488.046875	22591.90625	23492.966796875	24538.22265625	26333.025390625	26574.255859375	21443.939453125	27220.484375	23175.25390625	15055.0302734375	35686.7578125	20496.587890625	29516.146484375
1500	1800	14156.91796875	12477.634765625	17426.48828125	20946.669921875	21501.818359375	14967.541015625	25380.142578125	17566.931640625	3345.9755859375	31568.48046875	-1950.7760009765625	979.2462768554688	22236.875	88053.296875	13783.830078125	13900.3779296875	18188.3828125	21264.6484375	17494.68359375	16122.5732421875	21182.47265625	22496.978515625	31884.51953125	13534.771484375	15780.625	15620.0009765625	6042.6005859375	8750.861328125	5221.46923828125	19526.939453125	-491.080078125	8271.7607421875	20665.701171875	17271.103515625	22409.802734375	18597.087890625	35939.0546875	25993.4453125	15289.751953125	25168.48046875	21261.650390625	12570.6611328125	21249.177734375	20094.615234375	24387.640625	22032.50390625	27068.990234375	16015.6298828125	25719.453125	16225.4384765625	21582.10546875	21124.515625	18409.25	20318.572265625	18733.69921875	19835.435546875	22799.578125	23944.4296875	22439.162109375	15055.80078125	25106.67578125	19042.556640625	18604.23828125	49321.23828125	21366.34765625	30522.34765625	22102.5625	23741.56640625	20246.32421875	20500.859375	18206.9453125	20231.392578125	20237.86328125	26495.53125	21934.259765625	19997.783203125	23236.578125	23039.033203125	29758.76171875	26699.404296875	15335.9404296875	17041.748046875	25134.486328125	20629.75	20887.7890625	23203.958984375	19248.21875	23003.064453125	19945.84765625	21687.58984375	21715.505859375	24799.837890625	24434.470703125	19944.138671875	25707.92578125	20787.53125	11543.0068359375	33175.60546875	23426.681640625	27624.947265625
1800	2100	13952.841796875	13097.1611328125	15600.0009765625	19930.0	20024.9375	12979.755859375	21270.982421875	15011.5419921875	3095.385498046875	25778.490234375	-2258.47119140625	-4526.8720703125	20289.734375	60227.2578125	13712.4404296875	13582.51171875	16390.603515625	18770.09765625	16660.201171875	14304.849609375	18633.900390625	18692.751953125	27315.4765625	949.8169555664062	14280.6279296875	19720.521484375	5961.1650390625	8501.80859375	5295.14453125	19273.65625	-418.22265625	8557.5400390625	20267.158203125	19350.744140625	20724.607421875	18800.32421875	30091.9375	23417.345703125	13937.58984375	22285.97265625	19077.822265625	11812.1572265625	18944.578125	19543.828125	23466.529296875	20095.890625	26839.15625	15541.41015625	22862.84375	14013.6142578125	20040.64453125	18751.599609375	16167.83984375	17395.259765625	16848.427734375	18223.130859375	19055.9140625	21814.724609375	20640.392578125	14280.1630859375	23718.58984375	17553.83203125	18697.375	46064.8203125	20946.89453125	27511.736328125	22220.560546875	20509.2109375	18461.376953125	18190.931640625	14075.1953125	18457.353515625	18473.0	24655.205078125	19664.578125	18848.568359375	20555.71875	21894.80859375	27935.537109375	24769.1640625	14749.86328125	14576.4404296875	23126.193359375	18542.041015625	19486.498046875	20000.712890625	18596.8515625	21461.51171875	18795.775390625	19690.623046875	20345.787109375	22878.56640625	22130.0703125	18768.833984375	23665.3046875	18883.25390625	6105.9423828125	29281.421875	23587.4609375	26396.943359375
2100	2400	14202.947265625	13970.630859375	13635.0390625	16677.55859375	16864.318359375	10803.103515625	20463.40625	13647.3759765625	6807.802734375	21321.77734375	-2129.595947265625	-6469.50244140625	19935.646484375	46585.9453125	13591.8818359375	14556.033203125	13967.9638671875	16485.705078125	13841.2236328125	11772.5302734375	20422.87109375	18213.482421875	26397.9140625	-3554.91064453125	13833.720703125	6933.568359375	5790.6220703125	8335.5439453125	4740.26220703125	17443.0234375	-422.8990783691406	8582.9560546875	17640.603515625	17217.041015625	18021.763671875	16912.796875	28298.0859375	22999.701171875	13029.3564453125	21573.64453125	18082.302734375	11022.05859375	17302.4453125	19509.63671875	21144.70703125	17378.015625	22980.052734375	14936.283203125	21206.515625	12474.1630859375	16479.07421875	15759.2216796875	14526.1689453125	17211.798828125	15095.740234375	16407.978515625	18005.22265625	19194.7109375	18680.3125	12572.88671875	21424.16796875	16001.5185546875	13934.29296875	44243.56640625	19556.11328125	24788.962890625	18881.0546875	19498.76171875	18001.5078125	16038.615234375	14392.3037109375	19279.658203125	17036.341796875	23845.451171875	16759.15234375	17697.298828125	19893.171875	21364.84375	24880.98046875	23569.33203125	10804.400390625	13157.8916015625	22270.29296875	17667.78125	17162.76171875	18586.783203125	16417.693359375	19964.26953125	16511.794921875	18861.87109375	17610.74609375	21073.083984375	19975.75390625	16887.787109375	21743.904296875	18170.3515625	5266.5810546875	24991.162109375	21931.640625	24592.2890625
2400	2700	13657.18359375	13049.1357421875	12621.79296875	15279.5751953125	13353.9169921875	9185.96484375	18797.001953125	12595.1240234375	4999.29248046875	14206.7900390625	-1756.0491943359375	-9587.21484375	16889.92578125	69585.5625	13284.0302734375	14331.005859375	12586.1982421875	15032.6748046875	11367.2353515625	10814.150390625	19622.58203125	20841.890625	20242.12109375	-8364.3955078125	12368.3046875	-10213.0634765625	5661.1904296875	8071.76123046875	6364.14794921875	16363.927734375	-257.19305419921875	8674.556640625	16685.0625	12805.0341796875	17723.716796875	15582.5576171875	23442.35546875	21909.234375	11781.3525390625	20816.068359375	15971.6884765625	9771.142578125	15658.1025390625	18273.4609375	20030.697265625	16970.669921875	18841.830078125	11968.279296875	19636.572265625	11253.92578125	16393.1171875	15865.8828125	11971.9189453125	14816.2841796875	13918.4599609375	15986.7998046875	16492.85546875	18203.197265625	17737.619140625	11981.796875	20755.783203125	15149.5927734375	12845.6533203125	37927.3203125	19754.1640625	25290.5	18378.099609375	17634.529296875	16219.1474609375	16330.2763671875	10582.69921875	17893.236328125	15988.02734375	21162.185546875	17994.90234375	17186.591796875	16988.390625	19758.482421875	25020.484375	21036.0859375	9313.318359375	11736.681640625	18397.564453125	14380.4833984375	15914.17578125	17587.66015625	15342.9208984375	19521.029296875	15029.046875	16811.1484375	14244.07421875	19700.6171875	18345.185546875	15871.0126953125	20897.57421875	16904.080078125	4119.41943359375	24553.521484375	20349.8828125	23164.0625
