frame_start	frame_end	Left-Cerebral-White-Matter	Left-Cerebellum-White-Matter	Left-Cerebellum-Cortex	Left-Thalamus	Left-Caudate	Left-Putamen	Left-Pallidum	Brain-Stem	Left-Hippocampus	Left-Amygdala	CSF	Left-Accumbens-area	Left-VentralDC	Left-choroid-plexus	Right-Cerebral-White-Matter	Right-Cerebellum-White-Matter	Right-Cerebellum-Cortex	Right-Thalamus	Right-Caudate	Right-Putamen	Right-Pallidum	Right-Hippocampus	Right-Amygdala	Right-Accumbens-area	Right-VentralDC	Right-choroid-plexus	AirCavity	Skull	Vermis	Pons	CSF-ExtraCerebral	Head-ExtraCerebral	ctx-lh-bankssts	ctx-lh-caudalanteriorcingulate	ctx-lh-caudalmiddlefrontal	ctx-lh-cuneus	ctx-lh-entorhinal	ctx-lh-fusiform	ctx-lh-inferiorparietal	ctx-lh-inferiortemporal	ctx-lh-isthmuscingulate	ctx-lh-lateraloccipital	ctx-lh-lateralorbitofrontal	ctx-lh-lingual	ctx-lh-medialorbitofrontal	ctx-lh-middletemporal	ctx-lh-parahippocampal	ctx-lh-paracentral	ctx-lh-parsopercularis	ctx-lh-parsorbitalis	ctx-lh-parstriangularis	ctx-lh-pericalcarine	ctx-lh-postcentral	ctx-lh-posteriorcingulate	ctx-lh-precentral	ctx-lh-precuneus	ctx-lh-rostralanteriorcingulate	ctx-lh-rostralmiddlefrontal	ctx-lh-superiorfrontal	ctx-lh-superiorparietal	ctx-lh-superiortemporal	ctx-lh-supramarginal	ctx-lh-frontalpole	ctx-lh-temporalpole	ctx-lh-transversetemporal	ctx-lh-insula	ctx-rh-bankssts	ctx-rh-caudalanteriorcingulate	ctx-rh-caudalmiddlefrontal	ctx-rh-cuneus	ctx-rh-entorhinal	ctx-rh-fusiform	ctx-rh-inferiorparietal	ctx-rh-inferiortemporal	ctx-rh-isthmuscingulate	ctx-rh-lateraloccipital	ctx-rh-lateralorbitofrontal	ctx-rh-lingual	ctx-rh-medialorbitofrontal	ctx-rh-middletemporal	ctx-rh-parahippocampal	ctx-rh-paracentral	ctx-rh-parsopercularis	ctx-rh-parsorbitalis	ctx-rh-parstriangularis	ctx-rh-pericalcarine	ctx-rh-postcentral	ctx-rh-posteriorcingulate	ctx-rh-precentral	ctx-rh-precuneus	ctx-rh-rostralanteriorcingulate	ctx-rh-rostralmiddlefrontal	ctx-rh-superiorfrontal	ctx-rh-superiorparietal	ctx-rh-superiortemporal	ctx-rh-supramarginal	ctx-rh-frontalpole	ctx-rh-temporalpole	ctx-rh-transversetemporal	ctx-rh-insula
0	30	42.981163024902344	55.1980094909668	50.90880584716797	24.29979133605957	56.48396301269531	64.08547973632812	71.07238006591797	115.72675323486328	110.64912414550781	6.439919471740723	41.952762603759766	996.6266479492188	18.670948028564453	-51.57332992553711	36.574214935302734	52.78327941894531	67.57772064208984	151.5846405029297	12.525223731994629	64.13106536865234	-21.219764709472656	25.120258331298828	160.8338623046875	98.3854751586914	115.79122161865234	-161.2389678955078	31.810302734375	45.9608154296875	87.74451446533203	12.001755714416504	59.01934814453125	41.35064697265625	124.40888214111328	182.7251434326172	48.78310012817383	71.66730499267578	220.83847045898438	24.27886199951172	55.130863189697266	52.71440505981445	-15.704771995544434	23.85271453857422	153.4262237548828	31.300058364868164	95.0938949584961	16.596296310424805	90.42625427246094	109.36721801757812	76.96405029296875	-59.91740417480469	26.916555404663086	106.58243560791016	27.151647567749023	105.99845886230469	15.043810844421387	63.363304138183594	41.48285675048828	23.80190658569336	81.89579010009766	8.734457969665527	19.501434326171875	16.144521713256836	72.7339859008789	117.69819641113281	325.0732116699219	215.16885375976562	-44.70272445678711	191.7576446533203	45.493961334228516	21.25629234313965	225.40966796875	114.59638977050781	29.89689064025879	108.19824981689453	6.9846272468566895	15.338316917419434	119.10853576660156	68.49359130859375	178.30271911621094	39.89191436767578	-22.234891891479492	32.519744873046875	170.69712829589844	207.76229858398438	81.21858215332031	42.915733337402344	19.567707061767578	-16.324861526489258	37.63913345336914	98.15192413330078	57.1027946472168	35.81797790527344	39.66165542602539	-4.82266092300415	139.1481475830078	44.27686309814453	-42.740570068359375	2.1873068809509277	241.41909790039062	114.10626220703125
30	60	1181.5123291015625	2213.564208984375	3538.815673828125	3783.6689453125	5710.70556640625	5728.904296875	1721.6812744140625	2890.861083984375	4783.75390625	4412.43603515625	1022.5436401367188	7700.32958984375	3790.020751953125	11597.9248046875	1268.2113037109375	2516.411865234375	3342.834716796875	4756.3974609375	5015.65966796875	6709.28369140625	2527.5361328125	4953.91015625	4538.818359375	9045.2919921875	3049.05712890625	11091.51171875	362.56488037109375	668.107666015625	3207.370849609375	3039.888427734375	3056.640869140625	647.966796875	6614.00634765625	6041.11962890625	7402.2841796875	8415.0087890625	3445.744140625	5153.1494140625	5852.65087890625	4683.89501953125	5017.072265625	7018.33984375	7628.98828125	6726.86083984375	7359.775390625	5498.2451171875	4003.96044921875	5846.783203125	7324.8701171875	5728.69677734375	8390.8271484375	13518.21484375	7435.61865234375	5019.9892578125	7042.5146484375	6351.92236328125	6169.0927734375	7724.2275390625	7151.193359375	6161.2294921875	5494.1328125	6815.4609375	7974.962890625	4074.822265625	10441.2021484375	7236.52099609375	6465.8896484375	7170.5771484375	6179.037109375	9552.9482421875	5163.732421875	5388.6923828125	5638.521484375	3980.39697265625	5289.1748046875	7455.84912109375	7431.97412109375	6644.85546875	6874.5947265625	5113.62939453125	3288.208251953125	6239.8095703125	7517.7607421875	6890.091796875	7361.2470703125	10909.517578125	6409.744140625	7567.970703125	6587.240234375	6238.39501953125	5565.75830078125	7419.3837890625	7156.6572265625	6231.564453125	5590.30810546875	6632.25634765625	8559.2666015625	3714.470458984375	11954.583984375	5884.4306640625
60	90	3922.931884765625	8222.0419921875	12575.9013671875	15710.9326171875	21464.40234375	21697.146484375	7694.19677734375	10508.0302734375	16926.35546875	11428.3935546875	3579.84912109375	25437.49609375	9469.05078125	33183.5234375	4054.8046875	7686.2392578125	11922.9580078125	16856.033203125	21688.640625	22325.587890625	7816.080078125	14531.6513671875	12472.9765625	18853.158203125	11652.5791015625	31365.189453125	1148.7403564453125	2061.18896484375	11167.3125	10767.162109375	6800.10888671875	2196.70361328125	23546.2109375	17801.849609375	27482.72265625	33316.93359375	13984.6904296875	15994.1708984375	20718.458984375	20003.896484375	22902.541015625	24735.05859375	23846.865234375	24836.494140625	23091.39453125	19345.390625	12125.95703125	20697.388671875	24079.646484375	24168.416015625	29047.15625	40976.3515625	26077.3515625	18762.95703125	25829.47265625	22547.912109375	20602.595703125	28480.482421875	23735.59375	22465.986328125	18276.37109375	24178.435546875	26396.5078125	14322.1513671875	34741.50390625	20671.67578125	21813.07421875	19069.296875	24378.435546875	32114.55859375	15665.025390625	17781.36328125	21637.17578125	18085.623046875	21573.9921875	26198.943359375	22770.00390625	24613.451171875	25215.59375	18008.77734375	13924.6171875	23013.984375	25424.046875	24055.287109375	28452.4296875	34844.4453125	25009.408203125	23884.703125	24762.88671875	22628.349609375	16880.736328125	26478.130859375	25318.177734375	23046.8671875	20505.78515625	23347.888671875	29565.427734375	11281.796875	35397.69921875	18397.830078125
90	120	7465.95654296875	14060.7451171875	23505.5234375	30629.9140625	39719.328125	40059.32421875	15825.2158203125	18394.94921875	27406.865234375	21598.08203125	5454.296875	37547.4453125	21344.197265625	54792.3828125	7434.57275390625	13712.8984375	23085.150390625	30593.365234375	37877.29296875	39531.31640625	15132.7353515625	28413.66796875	19766.490234375	38427.22265625	20756.314453125	57204.68359375	1837.4857177734375	3677.589599609375	20605.46484375	21940.119140625	8769.240234375	3828.830322265625	41902.84375	30194.5234375	53353.71484375	61249.28125	23699.255859375	31125.185546875	40768.11328125	34873.109375	38243.2265625	45918.59375	41651.32421875	44968.87109375	44383.6484375	36203.4453125	24334.568359375	40753.7109375	45841.2421875	45369.26171875	50387.76953125	79803.4453125	48885.36328125	38355.65234375	46682.86328125	42594.35546875	33408.81640625	52572.39453125	45986.26171875	44196.390625	34307.64453125	43874.42578125	47874.8359375	22421.55859375	62138.62890625	32973.09765625	39344.875	38327.87109375	47914.68359375	61956.546875	24253.447265625	32437.298828125	41351.8515625	33968.02734375	41720.50390625	48897.9609375	41445.38671875	45706.94921875	44349.2734375	36125.14453125	24289.1796875	43743.05859375	47899.28125	44575.2734375	50416.796875	64854.89453125	47467.30859375	43352.4375	45007.71875	44584.52734375	35203.25390625	50560.28515625	46104.49609375	44422.6015625	36084.55078125	44224.54296875	51808.04296875	24074.486328125	55061.33203125	32915.67578125
120	150	11000.1142578125	20099.37109375	35008.72265625	44058.4140625	55402.71875	60711.31640625	19738.072265625	25865.716796875	37513.48828125	28132.2734375	8685.416015625	52837.12109375	30835.263671875	71951.15625	10512.8447265625	18850.30859375	34197.09765625	44141.96875	54694.37890625	61294.171875	20601.984375	37415.64453125	30251.5	35334.43359375	30498.935546875	93331.7578125	1609.3897705078125	5119.458984375	33181.51953125	30576.92578125	10225.564453125	5677.91650390625	58063.42578125	46671.2890625	75819.515625	85718.0546875	37985.8203125	42428.69140625	58762.1171875	51292.01171875	55855.73828125	65103.1484375	62648.81640625	64833.609375	64580.125	52396.2578125	38947.19921875	57128.67578125	67211.3359375	62570.5	72043.40625	117891.8125	72960.8828125	52485.72265625	69584.7578125	64294.9609375	48877.44140625	76387.046875	66172.6953125	65498.91796875	47998.546875	63601.68359375	69131.4765625	37134.84375	90515.9765625	46812.59375	59006.03515625	57068.34765625	70972.4375	85549.296875	35934.64453125	47602.69140625	61281.75390625	49642.59375	57203.69921875	71517.40625	62015.88671875	67969.6796875	65418.96484375	51321.94921875	35729.6328125	64936.62890625	68519.875	66786.2734375	74166.1171875	103998.3984375	68733.4375	64351.50390625	66886.640625	65018.984375	52179.3515625	72903.90625	66915.7421875	65607.484375	53739.48828125	62902.01953125	78619.140625	34094.86328125	93844.4921875	45342.9140625
150	180	13020.1513671875	23921.263671875	41474.51171875	51868.6015625	66295.765625	70396.1796875	27684.681640625	31258.068359375	43679.0625	34108.01953125	8787.13671875	63838.4296875	32096.453125	86156.140625	12509.9140625	23895.986328125	39991.6796875	54682.03515625	66357.0546875	72644.8984375	16910.8359375	44496.47265625	35483.27734375	47698.5859375	35205.765625	87530.015625	2097.798828125	5644.271484375	33097.83203125	37421.5859375	8289.5185546875	6455.326171875	67875.8046875	60671.31640625	85613.2734375	102594.921875	38693.05078125	53141.76171875	71607.296875	60255.96484375	63912.3046875	75773.90625	70654.859375	76898.484375	68685.4765625	61552.92578125	36648.453125	73858.6015625	74948.3203125	73061.2109375	85378.546875	132571.484375	86452.0625	64881.52734375	79870.578125	73681.953125	59888.6484375	87976.4765625	77381.9375	77039.21875	58080.56640625	75121.1328125	76993.5390625	43614.59765625	103928.3671875	51505.71875	69740.5	60717.94921875	79671.5234375	97066.6484375	40347.28125	53577.23828125	72705.578125	58700.9296875	68213.2265625	82723.234375	67849.53125	76361.8828125	74124.34375	61723.2578125	39550.17578125	73440.390625	79533.7578125	76107.4765625	85947.0703125	118095.046875	83779.703125	72907.6953125	79470.953125	73865.6328125	59764.28515625	86199.1484375	78933.421875	80177.3515625	61254.71875	73143.765625	91478.5859375	37603.25	103307.8125	50705.83203125
180	240	13869.865234375	26184.171875	42718.8984375	53901.21484375	65404.1328125	73914.1015625	23879.916015625	31497.1484375	45470.0	35749.84375	7677.0078125	65601.1015625	34783.73828125	71780.328125	12961.4453125	24048.37109375	42068.53515625	54528.59765625	70727.8046875	73835.7578125	24018.4609375	42560.1640625	40314.3515625	38712.28515625	37302.75	96747.578125	1781.2867431640625	5489.38916015625	36897.546875	39509.5859375	6157.44091796875	6704.3134765625	71176.125	58051.7265625	87376.375	102905.125	40002.765625	53946.76953125	72462.1953125	61421.53125	66109.8203125	78705.25	71875.2421875	76508.8359375	71618.7734375	62476.11328125	44723.59375	69294.1328125	76932.6484375	76882.0078125	85370.8515625	133388.75	86527.3359375	64645.32421875	81549.8125	75521.140625	56061.953125	89725.3984375	78224.2109375	79083.0234375	59541.0078125	76412.546875	81053.9375	43974.640625	103429.34375	52807.68359375	68637.3359375	66275.1640625	82690.4453125	100666.1484375	35623.03125	54354.4375	75013.671875	60257.79296875	69422.4921875	83329.53125	68890.859375	76948.453125	76089.0703125	63851.5078125	45281.15234375	77998.5078125	77794.734375	77320.78125	87154.078125	115985.015625	86051.765625	75258.21875	81225.7265625	77516.9609375	61174.91015625	88613.8671875	79363.6953125	81651.9140625	63151.30078125	75487.375	88608.9921875	40776.35546875	93328.046875	50209.3125
240	300	15061.103515625	25836.6171875	41380.68359375	51403.68359375	63485.8125	66768.40625	31188.560546875	30427.7421875	42146.78515625	38480.73046875	7711.6181640625	66647.09375	34658.15234375	65165.5	14885.533203125	24406.0703125	40650.375	53087.00390625	66335.8515625	69046.7890625	26735.779296875	40585.32421875	40237.015625	50785.40234375	36131.1796875	66995.7265625	1341.9276123046875	6115.49072265625	39052.0703125	37363.44921875	5168.18017578125	6970.63134765625	64628.2109375	52153.7109375	82999.828125	95517.15625	37477.08984375	52633.5390625	68210.8046875	58843.1796875	60392.81640625	72664.9375	66166.2421875	71305.9765625	67495.4765625	59839.3984375	42356.0859375	67738.2890625	71948.9453125	68866.7734375	80153.40625	116292.9765625	82709.6640625	64851.70703125	75529.3046875	70506.8203125	57619.2890625	81028.7890625	74371.890625	75795.484375	57782.2890625	71564.2421875	64972.67578125	40915.890625	86646.9296875	51501.9921875	69281.421875	61287.8828125	78035.8359375	92187.0390625	37928.3671875	53131.8359375	69262.828125	58544.2734375	68140.625	75790.2421875	64656.62109375	70509.4609375	69937.2109375	59909.58984375	43717.00390625	74442.390625	72163.703125	72910.78125	81018.2734375	102836.765625	81307.5390625	68594.0625	75607.40625	73562.0390625	56370.5234375	81937.3984375	73867.6796875	76594.0625	61023.44140625	71654.328125	84333.8984375	36850.4296875	87637.6328125	47171.609375
300	360	14846.34375	25735.958984375	38183.43359375	49389.80859375	59126.7890625	63797.8671875	30744.263671875	29180.177734375	39645.7890625	39518.33203125	6829.740234375	61919.2421875	33478.91015625	63323.4453125	14935.4248046875	24050.8046875	38421.94921875	49490.6484375	59231.96484375	63121.75390625	31021.56640625	41266.80859375	38064.890625	45255.76171875	34350.77734375	60532.08984375	1289.2208251953125	6159.0029296875	37751.94921875	34966.24609375	4657.59228515625	7328.70068359375	60209.37890625	48472.96875	73016.578125	85007.046875	38159.66796875	49733.18359375	63299.3515625	54423.45703125	55870.7578125	65748.8125	60490.15234375	65323.5703125	62808.71875	55460.03515625	42329.7734375	61751.92578125	65633.9921875	62931.4609375	70629.6484375	103435.1484375	75631.6328125	56220.44921875	69283.3828125	66222.6484375	51080.421875	75498.8359375	68177.296875	69983.3125	53211.68359375	65166.20703125	56428.21484375	40903.6953125	76984.859375	49618.45703125	63047.0234375	55294.23828125	70140.671875	84048.640625	32432.009765625	50736.0703125	64532.7578125	55611.9609375	58279.30078125	68820.3828125	59930.07421875	64103.44140625	63917.73828125	56426.47265625	38985.21484375	70532.9609375	65946.78125	64728.01171875	71210.0078125	88741.5625	73934.828125	65343.74609375	67839.2890625	64690.359375	50842.52734375	73662.078125	67275.8671875	69705.5390625	57404.16015625	65168.0859375	73814.546875	37293.09375	71206.5234375	45435.2421875
360	480	14813.8154296875	24018.28125	34683.859375	45993.1015625	53656.59375	57489.19921875	29788.720703125	28286.24609375	34474.28515625	36773.53125	4283.86328125	50027.15234375	31520.607421875	46361.6015625	14727.4736328125	22816.96484375	34823.60546875	46101.80859375	54580.48046875	55415.703125	29171.634765625	34703.5703125	35483.80859375	41201.5546875	33739.1484375	55507.55078125	1268.6495361328125	5833.884765625	35888.40625	32538.109375	2585.238037109375	7518.8701171875	51547.54296875	43864.43359375	62112.24609375	74026.328125	35841.10546875	44928.06640625	55791.8515625	50105.33984375	48951.82421875	55186.25	53648.375	56250.859375	58062.71875	49106.6015625	37790.90234375	55857.24609375	56341.2578125	55057.96875	61929.67578125	85759.1328125	65273.11328125	50118.1953125	60732.69921875	57286.16015625	47509.61328125	65430.66796875	59758.5	62747.02734375	48524.21875	58164.359375	51734.06640625	39558.03515625	64843.91796875	43999.671875	53854.96875	49885.26953125	61915.25390625	70088.8984375	31915.33203125	45854.1171875	56896.1328125	49976.38671875	51108.84765625	60968.80859375	51820.421875	53219.53125	55083.01953125	50160.77734375	37115.43359375	61006.5234375	59014.87890625	59160.29296875	62658.3984375	76801.765625	65033.6015625	55884.671875	59566.0625	55894.08203125	47522.7578125	64633.4921875	59123.0078125	62740.04296875	50730.1015625	56983.81640625	68220.40625	36435.7734375	60129.1640625	41967.96484375
480	600	14973.77734375	22507.546875	30522.177734375	41057.953125	44020.421875	48810.22265625	26148.984375	25653.849609375	29043.3671875	34400.30078125	2678.0732421875	47564.76171875	29958.8203125	32870.7578125	14538.197265625	21798.181640625	30409.390625	41160.59375	45454.453125	47776.1640625	28995.720703125	31684.44921875	33731.46875	35454.6796875	31002.6796875	42542.60546875	957.847900390625	5620.3359375	29490.03515625	29662.904296875	1409.8680419921875	7584.30029296875	43921.45703125	37865.5703125	51008.578125	60704.72265625	35774.31640625	38072.20703125	45771.18359375	43179.55078125	41852.24609375	45087.37890625	44960.8671875	46180.03515625	47993.33203125	41497.52734375	33697.40625	45192.1484375	46854.3203125	46778.4453125	50760.05078125	65050.8828125	52901.046875	44157.39453125	49557.9609375	45744.90625	40973.80859375	53235.3125	49058.4921875	50931.76953125	41520.82421875	48476.90234375	40223.62109375	35483.6484375	51214.1796875	38452.6328125	44615.3515625	42420.01953125	51621.54296875	56475.71484375	29725.66015625	39488.8359375	47909.52734375	42885.05078125	40748.12890625	49377.76953125	44491.78125	43680.3359375	46165.84375	43426.4765625	29894.677734375	48931.6015625	48286.84375	45915.37109375	52893.46875	58812.37109375	54272.50390625	46173.11328125	49899.1953125	46526.51171875	42272.8359375	53020.66796875	48817.5703125	52673.234375	43127.3984375	47003.90625	53432.890625	31684.05078125	47861.375	37422.8203125
600	900	15078.828125	21779.5	24415.2734375	33885.171875	33465.91796875	36930.2109375	26788.818359375	23017.1796875	23701.91015625	30635.802734375	959.0504150390625	34568.83984375	26358.958984375	22305.5390625	14649.7119140625	20351.740234375	24635.630859375	34416.1015625	33429.32421875	35445.91796875	25884.6640625	24453.392578125	31529.478515625	29618.0625	27346.734375	35629.125	816.0076293945312	5734.06005859375	21786.919921875	25312.095703125	139.19041442871094	7753.68017578125	32674.96484375	33799.07421875	38061.0703125	43434.58203125	30034.634765625	29603.880859375	34794.5546875	34024.54296875	31640.876953125	32666.728515625	35091.8203125	33589.64453125	38137.10546875	32163.751953125	27042.625	34835.296875	34879.30078125	34348.51171875	37118.77734375	43719.07421875	39279.86328125	32284.34375	37049.26171875	35129.15234375	32988.49609375	39406.4609375	37137.75390625	39109.74609375	32284.724609375	36120.7890625	29403.947265625	29718.6171875	36292.34375	31824.431640625	34962.3125	34536.05078125	37798.7890625	41549.82421875	26255.74609375	30433.07421875	36965.5859375	34401.1484375	32578.078125	36555.1171875	33194.19140625	32824.28515625	36199.69921875	33606.12890625	27051.083984375	37890.5390625	36392.3359375	35166.3046875	39838.515625	39491.12890625	40344.6796875	36097.078125	37419.79296875	34627.20703125	31288.396484375	39697.12109375	36598.12890625	40267.82421875	33746.0703125	35558.7421875	39350.125	26615.01953125	31866.41015625	30389.7421875
900	1200	14956.931640625	19946.0078125	18103.599609375	26097.322265625	23525.548828125	25016.748046875	23755.900390625	19272.076171875	16899.869140625	25390.26171875	236.1169891357422	21777.4609375	22400.06640625	15997.3681640625	14577.2568359375	18863.041015625	18569.658203125	26387.384765625	22538.833984375	23765.478515625	25042.46875	18712.615234375	24972.35546875	20971.2109375	23777.08203125	26277.26953125	581.9217529296875	5607.7041015625	15672.1650390625	21653.36328125	-374.68817138671875	7906.001953125	24002.24609375	26496.03515625	26617.189453125	29985.33984375	25034.099609375	22727.9375	25227.185546875	26015.12109375	22982.576171875	22975.1875	25644.513671875	24407.685546875	28401.5703125	23328.681640625	20665.6484375	24830.046875	24904.46484375	25330.765625	26708.134765625	29786.453125	27557.22265625	23814.357421875	26657.576171875	25496.46875	24594.822265625	27710.66796875	26649.1796875	28000.306640625	24042.267578125	25781.517578125	20035.138671875	23850.13671875	26588.7265625	24805.212890625	25227.6171875	25482.3984375	27453.904296875	29175.48828125	21137.5234375	23329.326171875	26653.505859375	26373.541015625	24245.240234375	26599.3671875	25436.365234375	22435.20703125	26099.625	25049.208984375	19518.8125	27351.009765625	26032.208984375	25778.65234375	29343.49609375	26698.119140625	28584.541015625	26277.1953125	26636.837890625	24342.638671875	23759.416015625	28766.9609375	26055.60546875	29250.001953125	25009.517578125	25642.30859375	29896.95703125	20995.3671875	24999.802734375	23103.01171875
1200	1500	14761.1181640625	18876.177734375	14220.5546875	20387.560546875	17364.46875	18264.32421875	22118.1484375	16625.42578125	14517.40234375	20288.234375	314.6676940917969	16143.6806640625	19552.607421875	9302.416015625	14398.9794921875	17652.4921875	14756.0517578125	20586.7890625	16549.0703125	18147.68359375	21013.716796875	15044.224609375	20986.55078125	11347.3447265625	20026.314453125	21727.642578125	547.8639526367188	5601.93212890625	11752.8388671875	18512.791015625	-244.88287353515625	8125.8076171875	19031.662109375	19431.705078125	19971.109375	22188.142578125	20315.873046875	18383.619140625	19357.6171875	21062.44921875	17965.009765625	18185.947265625	20628.322265625	20103.748046875	22620.5	18343.583984375	15616.396484375	19562.267578125	19866.939453125	22078.1484375	21582.669921875	21512.638671875	21348.603515625	18870.748046875	20705.69921875	19984.39453125	19749.583984375	21881.0234375	20774.46875	22261.640625	19363.150390625	20816.32421875	16424.283203125	19367.412109375	21061.705078125	20498.25390625	20002.728515625	21700.033203125	22028.693359375	22994.97265625	18793.23828125	19279.65234375	21132.646484375	21741.724609375	19897.25390625	21166.5234375	20641.177734375	18434.638671875	21202.017578125	19883.302734375	15429.9033203125	19945.634765625	21738.478515625	21278.66015625	22926.740234375	18723.9296875	22928.22265625	20323.130859375	20813.12109375	19832.791015625	19456.078125	22426.978515625	20406.201171875	22638.1484375	19787.673828125	20122.375	21750.701171875	17687.765625	19725.7890625	18942.330078125
1500	1800	14259.7421875	17033.630859375	11597.5537109375	16648.185546875	13509.853515625	14520.5771484375	19619.09375	14347.2900390625	11793.2099609375	16106.427734375	84.0193099975586	8425.10546875	17021.451171875	10218.109375	14012.4609375	16735.134765625	11953.20703125	16715.181640625	13007.3779296875	14485.962890625	17493.62890625	12442.7275390625	17154.92578125	9272.6884765625	17918.267578125	19110.36328125	400.5373840332031	5577.97021484375	10120.158203125	16858.498046875	-303.7470397949219	8191.49267578125	16512.83203125	16520.18359375	16614.19140625	19397.57421875	17078.955078125	16062.1337890625	16483.677734375	18286.544921875	16188.880859375	15676.009765625	17497.419921875	17080.2890625	19142.666015625	15534.0712890625	13407.39453125	16076.8623046875	17393.650390625	18399.685546875	17725.26953125	17284.384765625	18021.673828125	15351.1943359375	16579.109375	16625.134765625	17616.494140625	18171.412109375	17075.529296875	18391.357421875	16326.9013671875	17317.638671875	13579.619140625	16755.974609375	18299.23828125	17245.640625	15899.552734375	17938.396484375	18688.630859375	18973.9609375	16307.88671875	16558.041015625	17769.4375	18693.423828125	18677.236328125	18476.54296875	17710.830078125	16174.2021484375	19249.552734375	17036.087890625	12946.451171875	16741.54296875	17842.92578125	17646.05078125	19263.00390625	16626.384765625	18803.595703125	17712.65234375	16940.029296875	16311.89453125	16165.2099609375	19114.978515625	17095.931640625	19634.158203125	16930.07421875	16918.56640625	18213.248046875	14817.310546875	16929.8515625	15870.19921875
1800	2100	13750.94921875	15212.837890625	9644.1884765625	13568.205078125	9590.1435546875	12081.2841796875	15864.9599609375	12114.0546875	10573.2451171875	14461.7392578125	859.3876953125	6272.44384765625	15484.689453125	6331.77587890625	13423.00390625	14688.5595703125	10352.833984375	13291.4873046875	10725.451171875	10652.369140625	15714.6552734375	10567.03125	13929.126953125	6422.734375	15218.1669921875	12980.060546875	175.56903076171875	5815.5810546875	8916.1220703125	15331.5654296875	-150.02935791015625	8198.7646484375	14982.8876953125	15305.21875	13403.0009765625	16110.2890625	15423.5673828125	14620.2626953125	14051.7265625	17206.251953125	15058.33984375	13710.8955078125	15426.19140625	15001.376953125	17707.486328125	13098.3251953125	11772.01953125	13067.818359375	15631.857421875	16144.34375	15304.6923828125	14057.6044921875	14928.0712890625	13766.2578125	14254.9169921875	14288.6533203125	14703.498046875	14712.025390625	14204.78125	14972.1787109375	13909.38671875	14887.5595703125	9004.353515625	14712.4501953125	15953.83203125	15393.7666015625	14625.3447265625	15779.029296875	15597.2275390625	16062.0634765625	13710.796875	15122.4248046875	15270.9462890625	17110.033203125	15865.3818359375	15437.345703125	15327.4189453125	13418.2099609375	15237.572265625	14667.3408203125	10452.1943359375	14955.0009765625	15791.3173828125	15084.7509765625	18349.861328125	14442.193359375	15598.349609375	14997.041015625	14403.853515625	15025.015625	13644.373046875	15884.60546875	14348.779296875	16191.490234375	14660.111328125	14565.556640625	15928.04296875	12805.48828125	15460.775390625	14311.962890625
2100	2400	13115.099609375	13154.3916015625	8145.16357421875	10579.8408203125	7568.48046875	9753.568359375	14806.98828125	10390.60546875	8850.59765625	12749.931640625	1117.9527587890625	2925.165283203125	12384.353515625	6698.37744140625	12819.6220703125	12892.005859375	8565.6806640625	11361.193359375	7706.26220703125	8758.7548828125	13352.080078125	9157.91796875	12469.078125	2574.07080078125	13692.0966796875	10766.787109375	-110.02629852294922	5719.45068359375	6709.001953125	13896.9970703125	-244.55447387695312	8139.72265625	13448.185546875	13885.32421875	12557.7646484375	13249.8046875	12429.6337890625	14007.76953125	12557.5556640625	15129.76953125	13123.5927734375	12347.12109375	13886.0068359375	13999.4873046875	15290.2041015625	12267.57421875	11088.2158203125	12365.1650390625	13143.4228515625	12799.70703125	14098.7431640625	13537.74609375	12030.5947265625	11333.2802734375	12449.7939453125	13540.482421875	13419.572265625	12919.2138671875	12364.98046875	12732.6923828125	12471.1865234375	13060.630859375	8418.4921875	12930.6416015625	12354.568359375	13634.576171875	14342.7314453125	14640.880859375	13044.421875	14170.5244140625	11490.9775390625	14506.7529296875	13105.80859375	16035.494140625	13291.34375	14365.408203125	13880.3818359375	14073.6611328125	14345.3232421875	12579.8486328125	10704.6787109375	12969.6572265625	14664.1103515625	13029.84765625	14652.880859375	12877.033203125	13139.76171875	13295.99609375	11901.5185546875	12416.15234375	13041.205078125	13646.7666015625	12387.802734375	14023.951171875	12976.841796875	12983.462890625	13527.0302734375	11528.4619140625	13575.962890625	12865.91015625
2400	2700	12548.4951171875	12100.8896484375	7184.828125	8347.01953125	6111.81982421875	8693.1025390625	12504.24609375	9144.373046875	8285.2138671875	10172.7744140625	1701.4786376953125	237.53948974609375	11688.794921875	3910.834716796875	12372.220703125	11733.005859375	7568.0244140625	9085.1552734375	6559.23876953125	7528.55615234375	11228.748046875	7725.21728515625	11530.734375	852.884521484375	11710.287109375	4912.70361328125	-206.29342651367188	5532.248046875	5994.60791015625	12476.9462890625	-335.7036437988281	8216.0546875	12715.6064453125	10642.720703125	10216.2236328125	13741.919921875	11451.4658203125	12271.7275390625	10763.2412109375	14709.337890625	13333.9228515625	11439.4140625	13113.79296875	12573.3994140625	14499.841796875	9960.97265625	9592.03515625	12365.783203125	12089.4521484375	12972.236328125	12730.1767578125	11387.7099609375	10046.755859375	9955.23046875	10843.2236328125	11861.5810546875	10559.4208984375	10762.8623046875	10806.5625	11190.9287109375	11526.0791015625	11777.921875	10634.875	11632.7861328125	14560.021484375	12453.7431640625	12553.095703125	14250.037109375	11303.2158203125	11821.052734375	9734.0908203125	13305.5	11701.2470703125	14291.0380859375	13213.1806640625	13219.2109375	12405.1650390625	12289.142578125	12791.259765625	12223.4677734375	9826.5966796875	11980.224609375	13910.4541015625	12835.6884765625	13743.0380859375	11565.62890625	11452.615234375	12439.3994140625	10393.677734375	12142.7294921875	11615.97265625	12175.7998046875	10869.8017578125	11729.4521484375	11600.8876953125	11772.6142578125	12323.4580078125	9527.19140625	12943.4990234375	11363.4873046875
