frame_start	frame_end	parasubiculum	HATA	fimbria	hippocampal_fissure	HP_tail	presubiculum-head	presubiculum-body	subiculum-head	subiculum-body	CA1-head	CA1-body	CA3-head	CA3-body	CA4-head	CA4-body	GC-ML-DG-head	GC-ML-DG-body	molecular_layer_HP-head	molecular_layer_HP-body	Lateral-nucleus	Basal-nucleus	Central-nucleus	Medial-nucleus	Cortical-nucleus	Accessory-Basal-nucleus	Corticoamygdaloid-transitio	Anterior-amygdaloid-area-AAA	Paralaminar-nucleus
0	30	205.59899	226.2135	163.45644	156.48004	150.52704	167.94364	223.59047	217.88713	145.5166	190.79342	176.68325	129.94983	172.02924	184.83063	165.9701	188.43002	169.87575	184.13442	184.69766	65.60583	139.29939	166.17168	188.69054	103.6683	125.10494	303.91775	346.07756	178.85446
30	60	5199.97264	3742.06178	4248.84841	4224.28235	3749.75368	4669.76806	4415.26851	3788.34061	3727.2743	4247.11611	3318.6216	4690.62754	4164.31752	4543.16299	3906.83715	4571.39372	3932.43504	4302.77632	3894.81816	3231.00105	4327.62144	3512.56672	4327.91577	4281.89738	4237.63872	3897.61625	6277.87047	3906.1778
60	90	8769.07943	8111.0708	11217.21735	10233.7811	9345.23396	9690.94724	10313.41446	8855.82013	10205.09547	8982.54462	8960.91541	11559.28034	10618.08399	10742.67706	10778.77702	10292.83933	10798.64948	9691.36606	10420.99345	7020.62129	10096.07717	9208.6492	7651.08231	7867.45396	9593.81531	7798.23591	11884.53131	9146.80369
90	120	11215.87945	12346.53767	15553.11959	14173.3976	14775.83487	13336.81353	16205.79185	12131.3884	16500.2399	13049.53031	13315.97584	16211.26518	14586.3835	15494.33269	15193.16229	14998.79712	15385.47524	13647.45701	15180.78907	11787.32601	14911.72217	14313.00651	14083.65611	13136.94304	14848.12431	12278.86191	14584.26646	12447.81815
120	150	16878.59037	17395.97509	19693.7622	17991.43635	18822.45185	18106.90308	18622.23325	17511.49812	19601.00549	17663.78741	17500.94444	18529.42871	19170.74701	16359.08141	19861.0967	16796.40246	19733.85623	17740.48554	19231.7265	16660.62304	17709.10264	16501.7874	15567.96833	16387.00951	17836.46846	16243.48113	20959.7855	17719.50704
150	180	17167.1693	16918.42446	21398.25701	19475.72458	18803.59403	20079.72016	18963.49272	17812.80616	20046.54698	17965.01499	18548.75028	21438.50618	20020.56397	20354.92683	21074.21409	19233.01908	20910.76455	19042.31209	19883.15412	17034.53007	18931.9892	21706.92365	19522.25028	18154.20629	19651.45202	14937.51547	17297.69002	17509.71591
180	240	15560.00667	16235.69579	20644.01075	18532.30573	18251.77716	18557.60762	18371.34116	17974.38568	20026.81191	17500.25934	19455.03635	18156.1618	20309.83907	19156.24297	21095.25816	18462.66717	20763.74013	18261.3246	20097.79051	17463.29518	18890.43735	19018.8617	16415.03697	17376.63664	18705.41295	15783.52693	17997.0096	17043.04592
240	300	14768.1499	15184.54047	19192.18232	18087.02358	18984.5396	17708.73062	18585.48021	17315.43422	20232.87753	16899.93209	18165.45704	19486.43167	18390.98187	20256.11348	19888.92675	18862.38869	19794.47658	18090.00775	19210.06686	17232.23639	18474.60377	18108.37309	16950.59821	17239.2667	17618.1333	14527.96231	18141.90042	17490.9665
300	360	15187.2919	13936.01062	18899.31902	17761.88643	18232.63509	17681.72066	17413.15894	17657.9326	18913.95993	16365.65586	16913.44974	17989.38876	17649.01307	19107.10616	19427.36834	18011.67604	19234.88753	17650.7668	18374.67528	16597.65263	17528.49816	17398.72504	16573.43443	17005.84746	18153.99567	15077.95034	17628.81716	16006.72146
360	480	13173.9139	13608.2482	16936.8292	17105.26959	16368.67701	16675.54056	16265.79273	16743.9774	17668.84633	16237.30163	15315.32477	16212.11034	15667.6096	18461.83152	17105.07822	17721.52218	17119.30944	17138.39551	16567.67005	16694.8826	17168.76285	15956.19214	16151.86272	16273.78601	17038.23613	14209.00145	16204.42252	15879.07977
480	600	13425.78201	13034.37034	15698.56472	16069.83613	15196.94409	16589.16587	15506.89654	16603.12695	17093.64722	15005.8343	14400.25244	15569.55282	14582.31634	16757.51949	16423.77968	16022.53059	16299.53216	16399.58144	15793.03798	16017.42829	15963.70059	15853.68697	14125.32575	14098.51578	15691.91731	13371.72802	16669.98358	14756.71775
600	900	11536.0465	11932.62279	14547.13038	14722.5425	13399.93961	14150.53476	14139.30077	14927.84543	14960.87044	13737.63309	13561.19615	13898.12262	13492.59051	14969.25016	14640.32389	14411.92703	14753.53424	14703.24777	14314.96199	14242.93688	14896.13452	14370.83132	13432.59668	13441.35782	14674.83933	12718.2513	14587.12784	14098.6361
900	1200	10834.15479	10842.88293	13387.17265	13278.82431	12018.51888	13407.40307	13299.69689	13471.23485	13686.22799	12469.03438	12482.94155	12219.66415	12668.29049	13533.37324	13507.55627	13023.19682	13556.70012	13292.42576	13288.36723	13834.768	13395.12301	12858.09818	13149.67815	13540.99908	12790.88457	11079.99449	13100.85296	12779.03055
1200	1500	10281.31883	10453.16423	12420.88452	11962.20711	11217.13775	12114.5289	12220.5917	12528.94945	12711.11348	11310.73365	11772.10944	11514.20479	11544.75813	11897.60325	12297.60148	11786.01959	12364.4181	11879.56549	12153.53105	13196.23991	12079.62734	12585.48702	12691.88058	12455.9824	11645.58188	9936.81352	11717.61825	11307.68842
1500	1800	9181.94173	9994.48621	11706.47227	10685.91402	11221.38477	10877.43212	11556.8969	11405.56079	11762.43889	10195.85996	10636.00969	10208.8026	10794.88043	10740.12336	11182.80074	10694.56046	11254.48537	10723.23416	11121.28609	11730.00229	11474.51312	12330.31522	13142.74665	13024.07906	11609.41848	9881.23933	10456.28235	10441.50064
1800	2100	8437.92905	9665.16114	11803.83069	9934.99847	10361.88192	10177.79282	10800.68693	10542.39182	11144.8964	9283.12181	10415.40318	9317.61609	10657.48464	9615.93861	10987.02279	9602.37726	11115.5939	9647.31843	10718.59947	10913.14912	10330.63613	10880.30727	11561.64746	11273.89844	9971.80807	8987.72124	10344.40968	9155.87257
2100	2400	7670.22898	9399.21688	10619.26795	9301.14618	9095.45103	9234.4126	9681.78701	9712.47366	10147.6637	9067.24369	9687.00045	9816.731	9983.09268	9433.40661	9961.30172	9336.78036	10041.53795	9293.41812	9832.07486	10639.72128	9902.08621	11119.81341	10628.69992	10834.3479	9937.05623	8384.78465	8645.82313	9315.82924
2400	2700	8398.46195	9573.77424	9925.73208	8943.42558	9219.28429	9704.47793	9484.4157	9324.72167	9754.86233	8393.48006	9200.78905	9008.66932	9179.30105	8445.98261	9384.46909	8687.5661	9388.79691	8609.39942	9301.12351	9980.99382	8536.25807	10196.75302	10808.60896	10802.60792	8936.53893	8281.13079	8178.10413	7875.12949
2700	3000	6742.47795	8486.27272	9372.66273	8049.99617	8018.94926	8093.87641	8528.68412	8950.51608	9302.58435	7564.07687	8971.83614	7960.47709	9080.1532	7626.47598	8918.0799	7723.10423	9046.50286	7823.04192	8868.96565	9139.75355	7886.61197	9555.07838	9620.04827	9213.18839	8183.93604	7615.48413	8628.18433	6977.33606
3000	3300	6567.23273	7211.56987	8814.14631	7693.90777	7870.95236	7646.38642	7972.22034	8269.58693	8729.29634	7084.08914	8416.66054	8038.12686	8278.90921	7535.24226	8372.5467	7440.34675	8466.41987	7463.67751	8299.42055	8984.11897	7317.33601	8571.91231	8825.37019	8313.11873	7432.09503	6411.29623	7266.82055	6513.4901
3300	3600	5354.39471	7753.72019	8198.33432	6678.04135	7420.1377	6502.14392	7420.36846	7906.3709	8114.18719	6407.54337	7946.219	7484.39213	8098.54575	6541.67875	7828.69083	6648.81328	7768.70881	6582.41945	7762.14088	8323.43027	6930.28462	8701.61469	8314.38742	8350.78245	6880.97323	6423.13751	5901.59719	6516.99133
3600	3900	4963.19284	8024.80885	8307.59409	6657.06113	7738.59776	6103.5788	7283.83322	7375.61284	7423.4178	6559.76833	7329.66103	7701.30399	7902.86072	6775.81557	7501.2492	6763.99649	7513.08795	6599.8099	7280.62477	8115.63701	6216.90977	9485.59002	9336.95075	8868.66244	7404.47065	6517.05983	5974.02315	5541.84826
3900	4200	6603.29679	7992.47261	7778.33311	6453.7996	7427.38526	6674.95581	6688.8048	6316.16161	6529.32432	6250.99618	7399.44506	6703.35734	7326.40991	6059.01904	7031.97841	6466.10075	7023.64914	6084.44949	6860.77869	6671.90904	5791.60712	7504.96482	7229.0113	8572.51879	6630.91186	6407.44626	5885.62067	5737.91383
4200	4500	4692.92831	5630.7158	7637.37715	5603.32967	6300.64703	5472.65747	6571.47144	5966.1398	6667.0371	5562.49295	6932.81379	6246.55943	7618.58502	4861.18728	6864.36555	5251.95914	6913.76104	5428.22897	6833.11151	6986.64575	5675.98058	7904.77733	7326.15018	7615.25614	5930.82471	5353.8965	6189.42663	5368.10629
4500	4800	4160.37491	6988.38276	7203.05635	6186.37023	6386.20757	5797.8762	6175.90488	6501.95097	6537.32757	6231.69356	6977.97193	5962.96416	6898.05719	5846.29846	6322.02213	5955.7988	6445.45542	6069.99158	6412.71533	7300.35121	5937.19857	5897.87204	7076.10205	6670.66082	5861.34974	5955.63287	6387.78544	5021.80042
4800	5100	4997.71708	6205.63459	6676.61895	5148.02312	6293.21834	4971.06358	4924.22161	6588.45075	5267.96276	5543.7312	6686.65018	5334.27917	7165.0271	4517.14486	6258.17551	4836.50737	6017.96691	5367.61848	5907.51991	6437.1593	5553.13979	6700.67739	7619.61942	6483.18642	5460.95045	5293.02729	5771.23985	5291.70864
5100	5400	3860.6039	6986.00357	7196.12767	5701.86994	5338.55833	5246.7738	6379.93875	5704.09125	6224.13018	5602.09062	6603.155	4914.24863	6966.23636	5168.17949	6799.99449	5332.21713	6908.68945	5265.51984	6646.77273	6408.93226	5118.07836	6372.80797	8634.78139	8039.13499	5695.46887	5947.18239	5406.64077	4604.68607
