frame_start	frame_end	parasubiculum	HATA	fimbria	hippocampal_fissure	HP_tail	presubiculum-head	presubiculum-body	subiculum-head	subiculum-body	CA1-head	CA1-body	CA3-head	CA3-body	CA4-head	CA4-body	GC-ML-DG-head	GC-ML-DG-body	molecular_layer_HP-head	molecular_layer_HP-body	Lateral-nucleus	Basal-nucleus	Central-nucleus	Medial-nucleus	Cortical-nucleus	Accessory-Basal-nucleus	Corticoamygdaloid-transitio	Anterior-amygdaloid-area-AAA	Paralaminar-nucleus
0	30	602.7368	230.3504	113.52458	348.35105	266.50449	440.63753	418.79451	210.64612	223.56836	204.5539	147.14114	308.84304	114.25388	367.84574	159.54059	352.62184	154.73867	211.96053	201.97128	250.35433	177.70318	199.12496	233.08399	159.22986	156.60769	152.12568	668.98416	121.37052
30	60	5739.19456	8234.55282	5967.86182	5193.0133	6188.95054	5599.3566	5296.57461	4258.30405	5045.07882	5111.81209	4613.05477	6568.41288	5478.13501	4701.15748	5171.52591	4906.0391	5334.60073	4774.78286	5142.87262	3415.31601	4878.92609	6664.14754	7423.18809	6488.66196	6431.98184	6503.2955	5168.21912	4939.84991
60	90	13480.36318	20850.15004	19069.72749	14945.70647	15770.47018	14129.59751	15686.8255	13794.50232	16476.84812	13014.80634	15053.93894	16338.14961	16863.40523	13055.81281	16847.33014	13469.31611	17287.97276	13221.02343	16550.67496	10887.69447	14584.36026	17787.94255	18137.09824	19405.62983	17682.65067	18269.27615	15930.12653	13453.84199
90	120	21665.99594	30777.31129	29251.47859	26456.46438	25806.0179	24150.40244	25438.92245	28241.70068	25798.66674	25194.45162	22690.60099	31449.08647	25719.59109	26587.50563	25587.47206	27069.4193	26887.57891	26341.79649	25056.82006	21898.29297	25710.31723	32038.57321	30301.94297	29496.12418	30372.65371	27543.05841	30695.86572	23216.98192
120	150	23162.04798	29745.47108	35238.59262	31177.92918	34140.1655	29688.07597	29051.08606	35690.61394	33207.94614	32481.14127	34962.37928	35175.59122	34891.21709	33010.24754	33387.91549	32870.50743	33509.20606	33868.29789	33204.2592	33143.82309	32274.39957	34329.48862	33961.74531	34543.9264	32177.90065	28394.02752	38166.74651	31320.80418
150	180	24482.28681	33064.5086	40911.39469	34080.70955	38999.91622	33142.63122	33263.41209	38146.26301	39041.79926	34050.09726	37547.9244	36029.4014	38645.31463	36004.83112	40511.69829	34981.21862	40194.49598	36359.5878	38360.2717	33234.10262	35380.98173	37393.5793	35041.39023	35922.14618	38580.65895	33560.41462	34294.93311	36117.28541
180	240	27660.9387	30207.25549	40804.59845	34924.79714	36388.86888	35127.39926	32425.2001	37923.25164	38189.65133	33253.24456	36429.97185	35218.36275	37008.41628	35794.10636	38348.83973	35500.98623	39297.76962	36150.15405	37015.28878	34932.53194	34344.362	36475.14202	31635.1625	31581.31301	33903.33894	28362.51078	34388.30008	30455.91293
240	300	25108.67353	24911.84358	36505.79445	32584.07826	32762.9092	33600.61706	31017.11284	36855.23705	36020.44549	29427.18208	31785.77225	32016.1575	32744.19567	33407.13758	35703.996	32905.83814	36206.17433	33266.23048	34600.14401	31637.81932	33623.37565	34797.1385	30987.8332	30708.05787	31592.273	26656.36389	33560.34814	32048.50265
300	360	25725.89633	23361.64865	31953.90556	30569.00579	33164.714	32044.79784	29357.45848	35631.53491	33068.72521	28902.81093	30430.38246	29538.02836	29906.02862	30077.35481	32707.95556	29607.27391	32488.71379	31683.0071	31668.12206	34103.61892	35617.9702	31877.712	29136.94492	28890.46207	31091.87186	26390.95056	36657.72001	34139.6381
360	480	26914.15575	22086.91074	29818.91203	30027.19279	28687.5932	33852.8394	28519.89283	34307.27515	32101.17677	27509.76591	27216.11411	27078.57805	26048.26829	31775.90781	28543.36298	30828.45311	29346.57258	31126.15208	28856.35136	30196.76122	27965.99248	29503.96842	28228.46484	28005.67773	27771.15087	24344.21739	30597.08203	27068.16482
480	600	22710.435	21151.60156	26576.35175	26214.73301	25370.53214	28397.88828	25580.93559	31089.74086	29388.84301	25521.37313	24374.24925	24312.07229	24367.48	26995.43846	26790.65753	26529.98579	27155.72004	28053.37151	26557.88735	28297.08574	27812.30219	28099.43237	27113.28008	26946.74805	27684.188	23787.55113	26964.0309	26362.09633
600	900	19466.61591	19322.56211	23454.61344	22566.76273	20929.82913	24453.58754	22217.48517	26305.27039	24368.93456	21613.4854	20473.1714	20821.03542	20715.55566	23043.87835	22787.45352	22839.51515	23285.37556	23891.25091	22683.68328	24688.85728	22949.60242	24383.82935	24370.0	24438.48972	22624.49882	20498.90264	23303.32645	22783.73248
900	1200	14689.98833	15569.37344	18635.83495	17273.0488	17223.05715	18246.79344	17372.59229	21153.83845	17904.05444	17532.28477	16368.96904	17484.99623	17048.02495	17936.48173	17478.03061	17695.28991	17891.75192	18875.90552	17486.70973	21645.2426	19252.5897	20854.64927	20523.11484	20258.79924	18578.91092	16568.96187	18992.46443	19001.96963
1200	1500	11593.38487	13899.37209	16166.90789	13431.83804	14431.57083	13216.51689	14544.84971	15497.71995	14723.20165	13458.92488	13213.12911	14184.17888	14529.09791	13342.78338	14484.13287	13295.38754	15105.60459	13857.66874	14522.98357	17309.2304	15907.17712	17174.28471	16991.10195	16856.08409	15157.82843	14208.0062	17109.6641	14852.69664
1500	1800	11005.93843	12339.84986	14724.06071	12567.25019	12338.10016	13003.591	12693.71278	14619.96507	13184.87961	12599.52416	12496.53057	11713.06694	13790.10735	12580.64027	13156.18007	12759.60708	13550.51746	13087.55791	13030.65367	14673.69898	13446.0378	14327.76981	15219.52305	15334.15209	13253.60821	12725.0876	13213.09658	12565.32727
1800	2100	8840.52261	12336.03952	13102.16053	11339.27056	11548.61117	10136.07571	11959.41918	11444.48447	11962.23237	11580.3616	11961.3489	12374.947	12281.63931	11376.30366	12238.74006	11405.34755	12494.82386	11381.97596	12263.56689	13114.20295	11986.70634	12660.34568	13297.28262	13392.19362	12113.23648	11505.0022	12208.96753	11259.41523
2100	2400	8247.77046	8702.65754	12472.23042	9637.26191	10850.48534	9702.2389	10524.63656	11076.11076	10734.2566	9878.43016	10113.07582	9448.40279	11235.24711	9437.20843	10590.26477	9552.65731	11012.74835	10091.91847	10546.7311	11513.00867	10683.04915	11937.96961	12262.17832	12099.63775	10349.9737	9256.75279	9877.76409	10646.95999
2400	2700	7390.50799	10191.16291	11977.50376	9124.06599	9552.9615	8365.26581	10143.26586	9972.36442	9775.71722	9213.15698	9312.75843	9759.72278	10904.59134	8349.66315	10167.79722	8469.30032	10523.54475	9105.12129	10084.03962	11810.61628	9378.5884	11783.05603	11784.01484	11816.25488	9602.92449	9430.48282	9967.47541	9841.03571
2700	3000	7170.79195	8093.46954	10818.29625	7950.3341	9758.08354	7442.38894	7906.87877	9075.06723	8756.69667	8343.9047	8942.84376	9213.41521	10499.91328	8141.51896	9444.87704	8183.33506	9578.2145	8341.38452	9013.72791	10995.2019	9042.88678	10441.93262	10478.18652	10057.98982	8689.68399	8222.90659	10485.95473	8011.33239
3000	3300	6612.7877	7708.33644	10650.76216	7554.90805	8779.12345	7131.7729	8089.82102	7850.04201	8104.75871	7300.5635	8614.97271	8187.62105	10495.96675	7093.34206	9179.48251	7234.03431	9331.55738	7322.14847	8878.74309	10617.24937	8334.89447	9484.17871	8677.25596	9238.10696	8193.67059	7947.04774	9804.66539	7839.24523
3300	3600	6388.10196	6665.4109	11047.07592	7591.57935	8280.11931	7323.45629	8031.41906	8636.79763	8015.62234	7549.38579	8058.54647	7790.43359	10671.8515	6749.0983	9261.97867	6930.25228	9610.75013	7560.30643	8830.83048	10800.69071	8584.00326	9408.41398	8596.2415	8500.58419	7782.45541	6889.94315	10847.61227	8022.07913
3600	3900	6108.70668	6845.0325	8589.52274	7204.98062	7022.06626	6448.79906	7336.10485	8721.26417	8306.79989	7561.98724	8337.49917	7022.13618	8446.16281	7256.30276	7992.8787	7344.99607	8055.98776	7573.90915	7916.03861	9143.95782	7945.91794	7642.57796	7693.59502	8084.92257	7044.49259	7276.69623	9170.17072	8285.50095
3900	4200	5641.40731	7896.46654	8745.78747	6789.505	7457.21538	5864.21847	7362.1691	7089.39101	7855.75636	7037.10947	7953.87337	6873.23058	8951.42963	6157.53401	8004.14011	6330.93769	8079.98662	6650.01704	7927.71707	9137.35693	5919.93814	9136.601	9693.67285	9818.69817	6947.98907	6116.32194	7400.38864	5924.69141
4200	4500	5587.14746	6572.9695	9610.92845	7076.74267	6558.6629	6403.35334	7283.85195	7845.65026	6630.73029	7073.79384	7160.69913	8147.77902	9322.45537	6273.08916	7904.54045	6641.44667	7998.97648	7216.57616	7511.04179	7011.35118	5553.09386	8396.876	8013.31514	7096.63767	6036.57789	5593.40901	7152.15487	5475.45374
4500	4800	5002.29656	5563.25715	8322.51484	6134.55427	5935.68381	6064.18638	6230.27241	7448.05606	6786.37152	6490.68144	7368.56755	6422.2119	7762.88026	5351.14605	7181.42978	5508.9547	7528.90104	6316.43545	7054.76268	7598.24036	6568.62225	6886.1784	5760.66631	5718.45839	5925.42293	5381.89796	5808.60906	6419.98412
4800	5100	4473.84089	4826.16108	7721.00524	6657.25422	7023.67488	5255.34735	7422.29394	7210.68127	7339.55919	6471.7172	6808.29454	7621.48412	7468.11714	7357.05439	6763.88165	6929.5214	7140.39443	6989.5268	7153.98198	9249.29049	6348.57107	8696.01233	7455.8582	6989.97633	5659.83011	5241.69896	5981.12076	6723.21714
5100	5400	5930.27502	3984.40624	7006.20296	5624.94381	6668.66656	6270.3308	5983.86601	6219.73692	5097.57657	6135.31598	4899.7951	5576.16814	6435.51491	5562.22266	4901.39909	5617.05172	5410.11732	6128.06429	5029.37871	6678.97575	5807.86561	7188.50244	7592.21611	7135.92568	4992.56909	4320.40114	6880.34412	6953.02791
