frame_start	frame_end	Left-Cerebral-White-Matter	Left-Cerebellum-White-Matter	Left-Cerebellum-Cortex	Left-Thalamus	Left-Caudate	Left-Putamen	Left-Pallidum	Brain-Stem	Left-Hippocampus	Left-Amygdala	CSF	Left-Accumbens-area	Left-VentralDC	Left-choroid-plexus	Right-Cerebral-White-Matter	Right-Cerebellum-White-Matter	Right-Cerebellum-Cortex	Right-Thalamus	Right-Caudate	Right-Putamen	Right-Pallidum	Right-Hippocampus	Right-Amygdala	Right-Accumbens-area	Right-VentralDC	Right-choroid-plexus	AirCavity	Skull	Vermis	Pons	CSF-ExtraCerebral	Head-ExtraCerebral	ctx-lh-bankssts	ctx-lh-caudalanteriorcingulate	ctx-lh-caudalmiddlefrontal	ctx-lh-cuneus	ctx-lh-entorhinal	ctx-lh-fusiform	ctx-lh-inferiorparietal	ctx-lh-inferiortemporal	ctx-lh-isthmuscingulate	ctx-lh-lateraloccipital	ctx-lh-lateralorbitofrontal	ctx-lh-lingual	ctx-lh-medialorbitofrontal	ctx-lh-middletemporal	ctx-lh-parahippocampal	ctx-lh-paracentral	ctx-lh-parsopercularis	ctx-lh-parsorbitalis	ctx-lh-parstriangularis	ctx-lh-pericalcarine	ctx-lh-postcentral	ctx-lh-posteriorcingulate	ctx-lh-precentral	ctx-lh-precuneus	ctx-lh-rostralanteriorcingulate	ctx-lh-rostralmiddlefrontal	ctx-lh-superiorfrontal	ctx-lh-superiorparietal	ctx-lh-superiortemporal	ctx-lh-supramarginal	ctx-lh-frontalpole	ctx-lh-temporalpole	ctx-lh-transversetemporal	ctx-lh-insula	ctx-rh-bankssts	ctx-rh-caudalanteriorcingulate	ctx-rh-caudalmiddlefrontal	ctx-rh-cuneus	ctx-rh-entorhinal	ctx-rh-fusiform	ctx-rh-inferiorparietal	ctx-rh-inferiortemporal	ctx-rh-isthmuscingulate	ctx-rh-lateraloccipital	ctx-rh-lateralorbitofrontal	ctx-rh-lingual	ctx-rh-medialorbitofrontal	ctx-rh-middletemporal	ctx-rh-parahippocampal	ctx-rh-paracentral	ctx-rh-parsopercularis	ctx-rh-parsorbitalis	ctx-rh-parstriangularis	ctx-rh-pericalcarine	ctx-rh-postcentral	ctx-rh-posteriorcingulate	ctx-rh-precentral	ctx-rh-precuneus	ctx-rh-rostralanteriorcingulate	ctx-rh-rostralmiddlefrontal	ctx-rh-superiorfrontal	ctx-rh-superiorparietal	ctx-rh-superiortemporal	ctx-rh-supramarginal	ctx-rh-frontalpole	ctx-rh-temporalpole	ctx-rh-transversetemporal	ctx-rh-insula
0	30	218.69613647460938	127.07199096679688	183.55908203125	185.8064422607422	174.82174682617188	351.56671142578125	308.1199951171875	185.56175231933594	466.34393310546875	355.0316467285156	135.71820068359375	198.3826446533203	330.2619323730469	202.64157104492188	214.9063720703125	195.9385528564453	204.41705322265625	265.8199157714844	99.1410140991211	262.7616271972656	173.4640350341797	249.7675323486328	207.6939697265625	227.0806427001953	300.33172607421875	224.11984252929688	75.91320037841797	130.9720458984375	171.9383087158203	156.6436309814453	293.1555480957031	64.65807342529297	208.58885192871094	623.3864135742188	246.7423553466797	331.59906005859375	324.7747802734375	220.5426025390625	280.97650146484375	232.0678253173828	296.9955139160156	237.0135498046875	349.6479187011719	269.91107177734375	507.61358642578125	253.66343688964844	315.83935546875	294.8307800292969	410.9393615722656	498.5235900878906	406.1863708496094	335.5997314453125	327.3437194824219	270.3790283203125	346.8098449707031	323.7630310058594	581.2385864257812	316.81121826171875	352.5148010253906	267.89215087890625	327.342529296875	325.58734130859375	303.9759826660156	307.01092529296875	571.0291137695312	442.9119567871094	212.64170837402344	403.816650390625	291.814697265625	441.5467224121094	306.18359375	230.8771514892578	228.9412384033203	200.2041015625	275.9305114746094	220.47509765625	397.25469970703125	320.8924255371094	260.51422119140625	240.82154846191406	295.8329772949219	301.6522521972656	423.2261047363281	241.2952880859375	348.6590576171875	303.5213623046875	328.66827392578125	371.082275390625	290.90997314453125	349.7486572265625	385.75189208984375	286.5246887207031	280.07159423828125	205.739990234375	325.9468994140625	294.81414794921875	260.3513488769531	262.0859375	240.0259246826172	439.1580810546875
30	60	5208.2919921875	5280.73681640625	6364.0107421875	7265.8603515625	5573.12451171875	7914.0634765625	4977.45849609375	5378.2373046875	6618.6845703125	4762.2333984375	4625.31298828125	6124.82080078125	6272.732421875	6759.291015625	5552.93798828125	5405.22607421875	6103.4619140625	7021.6748046875	6045.27294921875	7860.07373046875	5298.0224609375	5340.62060546875	4801.759765625	6592.8984375	6318.896484375	4675.60791015625	1453.530517578125	2376.4541015625	6879.9697265625	5386.12841796875	5857.177734375	1462.80419921875	6789.544921875	7762.0009765625	7696.5966796875	8287.2353515625	5450.14599609375	6465.03662109375	6788.74853515625	6577.9404296875	7590.5341796875	5999.0380859375	7087.45849609375	7726.6044921875	8057.82080078125	6717.9501953125	6894.9267578125	7551.1787109375	7790.88720703125	8849.9462890625	7624.921875	8005.29833984375	7255.01025390625	7850.5126953125	7244.74560546875	8276.7763671875	9215.494140625	7280.37158203125	7351.64306640625	7254.84326171875	6732.5595703125	7789.5625	6510.90869140625	5412.76953125	9151.3505859375	7368.82666015625	6352.96630859375	6189.62158203125	7810.72119140625	9816.962890625	4985.9951171875	6913.31689453125	5955.78173828125	6294.44677734375	8049.42431640625	6692.2353515625	7522.158203125	8665.51953125	5754.33447265625	6399.9638671875	6678.474609375	7209.73974609375	7589.89990234375	7786.822265625	7063.81591796875	9878.3330078125	7661.3349609375	7403.947265625	7094.982421875	8686.271484375	5782.845703125	7621.5556640625	7114.14111328125	6837.8798828125	6676.1669921875	7001.7529296875	7069.76611328125	5808.85302734375	6102.1796875	7588.5966796875
60	90	14798.5224609375	15307.9892578125	16977.646484375	19044.193359375	13193.8212890625	20968.240234375	14360.4658203125	13551.14453125	16555.484375	14503.7216796875	12944.40625	13730.560546875	16507.087890625	17570.57421875	16095.6005859375	15065.0517578125	17216.65625	18800.51171875	16489.3046875	21491.10546875	14913.26953125	15113.291015625	14068.5986328125	17230.603515625	16230.2958984375	14679.6611328125	4457.376953125	6284.36474609375	19043.8359375	15220.693359375	14868.873046875	3995.4404296875	18043.69921875	20880.51171875	19970.439453125	24308.322265625	14623.2001953125	18108.3125	18598.076171875	17802.900390625	22044.05078125	16099.2568359375	16966.916015625	21222.533203125	19725.171875	18650.87109375	17428.38671875	21688.69921875	20762.595703125	20123.865234375	19053.87890625	20883.439453125	20159.578125	22048.017578125	19746.951171875	21933.037109375	21116.974609375	19015.275390625	19809.623046875	20909.134765625	18262.037109375	20654.962890625	15018.3857421875	15162.361328125	21170.0625	18198.232421875	16092.23046875	15545.2001953125	20277.109375	25682.1796875	12360.8759765625	19564.90625	16495.955078125	17626.55078125	22886.0546875	16488.642578125	19725.88671875	21732.296875	13857.9892578125	18227.650390625	17461.353515625	19738.08984375	17832.087890625	20156.4140625	18199.744140625	27128.23828125	21459.607421875	20847.697265625	20146.30859375	23396.85546875	12642.41015625	19958.904296875	18717.21875	19655.671875	18694.376953125	20266.69921875	20687.4140625	14840.7373046875	15859.3369140625	19319.83984375
90	120	25320.640625	27086.36328125	30235.42578125	31457.48046875	27352.7265625	36471.54296875	25005.583984375	22940.2890625	28365.154296875	24524.615234375	22862.271484375	30604.533203125	27354.33203125	26975.7890625	26790.361328125	25728.27734375	29777.900390625	31812.6171875	28827.34375	37685.48046875	27383.76953125	26289.453125	25176.71484375	33620.32421875	26013.18359375	24883.724609375	6326.5478515625	10107.2880859375	34017.55078125	27373.001953125	25799.0703125	6667.63427734375	32785.87109375	32571.39453125	35320.6484375	39915.3671875	23877.841796875	31080.79296875	32407.806640625	30406.15625	35627.37890625	28572.72265625	29029.400390625	36410.8046875	32171.04296875	31281.412109375	28974.48046875	35706.046875	35277.109375	35320.9765625	35195.68359375	38755.296875	34204.90625	35844.3359375	34131.875	38724.38671875	32741.890625	34454.2578125	34638.234375	35967.8203125	29172.083984375	35244.15625	28362.849609375	22277.607421875	34408.125	32027.416015625	29912.919921875	29676.548828125	34752.9296875	43691.61328125	22630.08984375	32392.12890625	31377.09765625	29909.505859375	37128.50390625	29363.69140625	32320.17578125	37682.60546875	26653.607421875	31813.68359375	28641.181640625	35624.7109375	32440.138671875	33296.53515625	33173.42578125	45767.78125	36762.3984375	35313.45703125	34737.44140625	41002.34765625	25862.216796875	35685.92578125	33692.42578125	34005.97265625	31489.08203125	35141.65625	35196.39453125	25741.251953125	27435.162109375	31719.9296875
120	150	33401.6328125	36099.91796875	40497.18359375	42611.1875	43759.5703125	50929.75390625	36362.375	30633.4609375	35780.80859375	31401.21875	32762.1953125	38860.9453125	34683.80078125	39012.7109375	33135.5625	35320.7890625	41754.97265625	44252.4453125	43268.40625	50509.87890625	33511.640625	33159.2109375	32118.67578125	42324.13671875	30995.787109375	34978.328125	6204.58154296875	13475.4375	43960.0546875	36348.29296875	36365.94140625	9338.32421875	41367.87890625	33168.9609375	49104.12109375	54464.625	28981.322265625	39856.03125	45047.43359375	38234.921875	43896.4609375	39963.609375	39763.47265625	48521.40625	39157.90234375	40312.359375	35199.79296875	46476.4765625	47012.25390625	42137.32421875	48686.640625	56121.81640625	46348.13671875	43190.453125	44539.03125	52358.98046875	43649.99609375	47362.046875	46886.72265625	47609.8046875	38338.81640625	46705.5234375	43154.2421875	31803.814453125	39258.31640625	40927.6171875	42446.69140625	39286.9921875	47125.3125	56412.34375	27696.625	41923.30859375	46293.9296875	38872.94140625	44794.96875	43376.109375	40714.4765625	50093.89453125	41231.52734375	41432.1796875	34509.546875	46344.94140625	45931.61328125	44774.26953125	47936.359375	58578.53515625	47285.359375	42222.8984375	45270.52734375	52545.5078125	39438.375	48462.2578125	46393.56640625	46614.125	40549.4609375	48072.94921875	47403.328125	30931.078125	38101.328125	39649.62890625
150	180	34863.4296875	37754.1484375	43036.22265625	43507.49609375	44957.578125	53849.7890625	38578.73828125	31605.60546875	39350.4921875	35793.22265625	32584.1796875	44272.47265625	33283.8671875	37173.41015625	34607.50390625	36916.23828125	43452.5703125	46193.38671875	43552.8984375	53275.6015625	35988.671875	36355.0703125	34796.96484375	45660.0703125	33167.7890625	34112.4375	6154.45068359375	13605.6005859375	45509.12890625	38327.48046875	36525.0078125	9620.8681640625	43632.47265625	35806.984375	49777.7578125	57729.3203125	30285.673828125	41309.58203125	46804.80078125	39969.515625	44698.03515625	42375.66796875	41057.7421875	49141.3828125	41463.70703125	42504.34375	35616.5390625	46440.390625	48603.34765625	41660.61328125	48777.265625	56981.2265625	47594.4609375	43639.08984375	46202.4296875	53796.70703125	44070.26953125	48301.95703125	48916.890625	49711.9375	40371.046875	48490.078125	46256.43359375	34087.80859375	42151.5859375	43150.75	45782.171875	42793.21875	49595.9765625	58924.09765625	26497.560546875	43366.9609375	48724.26171875	39744.76953125	44515.32421875	45440.7421875	40547.71875	50678.60546875	43437.60546875	43894.41015625	37322.0	48266.2109375	48262.30859375	44035.57421875	50904.58203125	58097.28125	49431.7578125	44713.3671875	47308.91796875	55142.8671875	42345.26953125	49895.3125	47484.03125	48591.94140625	42399.43359375	50035.5234375	48572.84375	30797.76953125	40660.49609375	41842.49609375
180	240	34790.609375	35427.90234375	41745.08984375	43966.0625	45422.19140625	52125.01171875	39970.0390625	30165.19140625	36739.97265625	33768.671875	30186.341796875	45618.23046875	33493.9375	34233.78515625	34109.140625	35305.15234375	41038.15234375	45190.109375	42835.84765625	51336.1328125	36078.140625	35652.42578125	33423.140625	39844.421875	32588.728515625	32088.302734375	7032.65478515625	13320.96484375	44141.59375	35847.375	34143.98046875	9651.6162109375	42556.734375	37046.48828125	48477.28125	51993.87109375	29776.8125	41652.2578125	44931.9921875	40207.4375	42924.93359375	39567.10546875	40691.01953125	46198.40625	38460.296875	42071.4765625	36100.59765625	46322.87109375	46111.4765625	42218.69921875	46410.33203125	52099.4921875	45812.84765625	45272.81640625	45233.5625	50925.546875	42161.1875	47634.1640625	47428.6484375	47343.8359375	39599.546875	46853.89453125	38277.74609375	34549.92578125	41650.9609375	42109.53125	43759.76953125	42170.94140625	49700.6640625	53462.1640625	25963.73828125	42113.98828125	45799.65625	39761.93359375	43590.74609375	42546.3125	38688.83984375	47682.21875	40901.06640625	42075.390625	35503.1796875	47598.37890625	44717.3203125	45186.65234375	47745.01953125	55030.04296875	47962.26953125	45128.14453125	46190.42578125	51559.13671875	41368.56640625	48350.9296875	46369.48046875	46834.14453125	40915.37890625	48138.19140625	41426.53125	30148.6875	41628.0546875	39909.93359375
240	300	32644.37890625	32594.3671875	38738.38671875	41467.14453125	42487.0078125	50807.6484375	39831.72265625	28541.55078125	34828.9453125	33237.63671875	26652.865234375	44762.9453125	33443.80859375	27942.8828125	32174.8046875	31808.96875	38892.66015625	43753.109375	40318.0625	49615.8515625	35242.22265625	32369.072265625	31328.345703125	41241.94140625	32157.908203125	28137.44921875	7483.94140625	12292.81640625	41457.26953125	32463.89453125	30598.04296875	9596.7958984375	40172.99609375	38549.2734375	46760.890625	48013.7109375	30464.603515625	39566.17578125	42306.1796875	38613.58984375	39975.5859375	37613.7421875	40580.97265625	42821.5859375	36677.29296875	40402.6796875	36010.73046875	43248.52734375	43541.03125	41808.4921875	43964.23828125	47348.62109375	42578.81640625	43979.77734375	42950.453125	46833.76171875	40433.48828125	45625.5	45505.625	44067.6875	37509.78125	44319.32421875	34246.33203125	32407.654296875	41570.66015625	40342.0	42662.828125	41781.7265625	47455.1640625	49310.2421875	27965.0	40963.25	42639.83984375	38634.54296875	41094.1015625	39511.1328125	37090.73046875	43640.4375	37392.37890625	40775.00390625	35395.9296875	44282.390625	43785.640625	45124.48046875	46095.765625	50428.4296875	44620.83203125	44537.2578125	44250.8515625	47588.0390625	40621.81640625	46400.2890625	44443.10546875	43699.26171875	38563.0390625	45216.51953125	40450.8984375	29235.578125	39874.92578125	38648.1953125
300	360	31028.3984375	30849.685546875	36155.84765625	39786.01171875	39234.09375	47526.40234375	37602.05078125	26749.37109375	33909.41796875	33081.9140625	24935.30859375	43208.33984375	32019.234375	25843.896484375	30454.134765625	30260.16015625	36092.48046875	41442.62890625	37038.66015625	46188.37890625	34856.87890625	30567.015625	32539.6484375	38268.359375	30734.748046875	24430.78515625	7453.72607421875	11772.0556640625	37808.94921875	30875.54296875	27845.798828125	9563.62109375	37604.67578125	37230.859375	43415.58203125	42906.21875	30013.43359375	36461.90625	39284.99609375	36833.6953125	35980.4453125	35026.3203125	37248.34765625	39546.515625	33960.015625	37702.96875	34634.5390625	39802.6171875	39419.19140625	39736.3125	39548.33984375	42638.21875	39670.63671875	39853.92578125	39603.92578125	42618.21875	37946.203125	41569.51953125	42084.42578125	40203.078125	35365.875	40887.7421875	31078.923828125	30044.166015625	37603.390625	38265.59765625	38318.28125	40233.35546875	44098.9453125	43743.890625	26882.93359375	38267.421875	39278.97265625	36543.00390625	36821.48046875	36096.35546875	33929.07421875	39964.8046875	33701.453125	37750.94921875	35094.9140625	41179.3046875	40461.77734375	41852.078125	41550.78125	42967.74609375	40707.15625	41950.01953125	40875.1953125	42530.15625	37600.46484375	42533.00390625	40454.03515625	39249.01953125	35453.7109375	41209.765625	35230.71484375	28779.677734375	37528.00390625	36904.6640625
360	480	29399.798828125	29328.6796875	33493.44921875	37568.546875	33524.9140625	43075.77734375	37098.2421875	26459.90625	32340.337890625	31344.216796875	22001.296875	39049.828125	31240.904296875	21926.185546875	29106.25390625	28337.8515625	33322.19921875	38127.19921875	32187.796875	41846.0703125	32494.123046875	28882.181640625	28192.23828125	36584.3203125	30672.78515625	22681.328125	7922.2197265625	10906.2890625	35829.77734375	29010.8359375	24374.943359375	9614.484375	35580.90234375	35707.40625	38023.75	38379.890625	28305.8984375	34316.703125	35659.28125	33858.68359375	34492.16015625	32474.94921875	32082.611328125	36396.98828125	27974.529296875	34374.96484375	34612.5625	37015.9921875	36124.5390625	34203.72265625	35228.96484375	38240.2578125	35670.0078125	39465.72265625	36244.17578125	39150.5625	34337.86328125	36783.09765625	37043.08984375	36413.71875	32332.572265625	36586.2421875	26395.51953125	28627.1484375	35569.44140625	35046.91015625	35979.00390625	37250.08984375	39146.39453125	39655.9921875	26379.146484375	35743.171875	36166.171875	34080.37109375	35796.703125	33753.609375	28036.64453125	36826.27734375	28619.205078125	34972.203125	33417.81640625	37815.02734375	35594.27734375	35648.98828125	37587.90234375	39887.296875	36669.828125	40209.15625	36745.6015625	38587.796875	33992.77734375	37174.671875	35955.65625	36520.90625	32449.865234375	38179.54296875	30125.5078125	26724.19921875	35151.0390625	34515.04296875
480	600	26964.8515625	27102.990234375	30012.294921875	33820.375	28373.734375	36960.9453125	33515.828125	24834.158203125	28570.197265625	28519.2109375	19564.02734375	32700.240234375	29851.94140625	18725.4765625	26935.4609375	27016.337890625	29890.201171875	34272.73828125	27764.119140625	36874.6875	31945.513671875	26063.9765625	27136.43359375	30391.587890625	28428.29296875	19316.2890625	7390.7109375	10567.1328125	30046.130859375	27743.99609375	20700.916015625	9486.9169921875	31666.552734375	32055.451171875	32384.978515625	33673.16796875	25617.81640625	30923.58203125	30938.822265625	29999.28125	30665.994140625	28699.3984375	28217.76171875	32469.080078125	24892.1328125	30175.083984375	31552.501953125	32604.125	31693.197265625	29845.138671875	31448.986328125	34310.890625	30412.525390625	34916.609375	31316.6015625	34671.91015625	30091.994140625	31564.962890625	31248.173828125	31513.396484375	28133.849609375	31302.234375	21452.888671875	26685.255859375	31527.34765625	31225.966796875	32686.93359375	31975.8828125	33292.15234375	33953.765625	21914.736328125	32501.234375	31195.53125	31320.46484375	31749.962890625	29628.908203125	24877.375	32133.498046875	24738.380859375	31276.443359375	31451.896484375	32992.30859375	30216.0	31088.513671875	31472.58984375	34913.48828125	31783.0	35765.8046875	31769.849609375	33490.27734375	29542.248046875	31545.763671875	30540.43359375	31676.97265625	29314.271484375	33046.3984375	24701.951171875	24053.953125	31096.2421875	30720.515625
600	900	23336.705078125	23399.806640625	23965.56640625	28538.51171875	23200.47265625	30267.1875	29332.650390625	21259.59375	23206.826171875	24596.6953125	16875.31640625	26756.875	26164.509765625	16710.005859375	23080.908203125	22955.283203125	23747.26953125	28366.654296875	22914.25	29346.8125	28262.98828125	22073.75390625	23287.029296875	25821.19140625	25163.60546875	16492.9296875	6395.86328125	10334.7783203125	23243.1953125	23472.193359375	16952.701171875	9315.287109375	26159.458984375	26126.876953125	26000.10546875	26101.421875	22452.232421875	25878.185546875	24932.931640625	25778.076171875	24335.189453125	23921.369140625	23787.361328125	25940.951171875	22517.912109375	24933.169921875	25884.755859375	25647.205078125	25522.099609375	25701.1015625	24802.896484375	26039.880859375	24566.83203125	27795.759765625	25033.66015625	26395.21484375	25177.3203125	25322.0703125	24808.625	24537.12890625	23625.234375	25452.966796875	16343.2412109375	22537.5078125	25546.02734375	26116.953125	26118.1015625	26107.697265625	26314.462890625	26550.376953125	18954.67578125	26727.6328125	24866.654296875	25792.8203125	24635.412109375	23986.10546875	22411.3671875	25427.677734375	22128.48046875	25266.146484375	24294.30859375	25526.390625	25038.44140625	25734.349609375	25417.146484375	27004.900390625	25027.076171875	27681.19140625	24995.177734375	25908.224609375	24935.90234375	25442.814453125	24408.00390625	24839.90625	23688.560546875	25787.830078125	20720.6953125	20274.982421875	25345.818359375	25647.931640625
900	1200	19737.666015625	19771.18359375	18203.921875	22331.025390625	18010.37890625	23222.458984375	24706.07421875	17533.70703125	18536.978515625	19475.775390625	14405.029296875	19879.666015625	21402.65625	14880.234375	19583.560546875	19013.556640625	17883.86328125	22175.0390625	18381.73828125	22415.361328125	23280.8203125	17570.263671875	19881.2890625	19951.08203125	20776.623046875	15048.0	5203.4345703125	10036.8271484375	17995.4609375	19744.314453125	13746.416015625	8805.716796875	20349.26953125	20566.51953125	20109.673828125	20271.310546875	17718.9453125	20610.4921875	19385.6640625	20831.1015625	19552.912109375	19278.62109375	18904.57421875	20410.189453125	18565.236328125	19924.25	19814.431640625	19896.421875	20037.609375	20009.658203125	20306.994140625	20801.89453125	18887.734375	20908.94921875	19200.8359375	20492.97265625	19683.4296875	20047.13671875	19052.474609375	19026.013671875	18765.4140625	19647.630859375	13879.7080078125	18513.5703125	19984.912109375	20795.666015625	21014.099609375	19655.490234375	20216.15234375	20191.48828125	15634.876953125	21555.322265625	19346.41796875	20818.5625	19859.10546875	19098.265625	18663.966796875	20209.009765625	18639.62109375	19813.052734375	18925.177734375	19627.466796875	19257.998046875	19524.939453125	19789.080078125	20434.1640625	19269.7578125	20968.916015625	19257.130859375	19805.12109375	19576.70703125	19811.83203125	18787.07421875	19186.162109375	19083.1328125	19880.16015625	17043.62109375	16508.287109375	19650.345703125	20233.837890625
1200	1500	17659.900390625	16380.087890625	14451.6826171875	17913.2890625	14524.625	18567.25390625	20962.71484375	14704.37109375	15719.66015625	16691.681640625	12603.6484375	15608.345703125	19030.279296875	13286.9013671875	17569.462890625	15857.462890625	14416.1953125	17552.365234375	14956.10546875	18347.3984375	19883.921875	14120.12890625	16074.4033203125	15289.5078125	17725.81640625	12833.927734375	4836.87255859375	9394.974609375	14039.8330078125	17069.04296875	11665.375	8538.236328125	17664.662109375	16716.71875	16856.4140625	17451.099609375	14485.8994140625	17944.6875	16369.970703125	18512.775390625	17571.77734375	16492.484375	16648.330078125	17952.19921875	15837.265625	16784.349609375	17443.025390625	16708.095703125	17475.130859375	17581.203125	17199.84375	18075.7421875	16038.0498046875	18000.86328125	16269.2890625	17264.66015625	16369.857421875	17140.232421875	15479.1064453125	15654.0400390625	15956.4560546875	16729.4453125	11227.279296875	15289.3330078125	16601.97265625	17802.07421875	18124.8515625	16518.525390625	17091.59375	17338.279296875	12590.458984375	18833.572265625	16292.7431640625	18246.126953125	17250.150390625	16174.2109375	16174.75	17338.92578125	15770.23046875	16960.7421875	16847.498046875	16710.375	16524.033203125	17160.12890625	16698.228515625	18223.244140625	15932.5556640625	17930.6328125	15823.45703125	16818.138671875	16472.224609375	16462.810546875	15675.7431640625	16237.1083984375	16043.830078125	16734.662109375	14277.15625	14213.744140625	16474.041015625	17577.861328125
1500	1800	16125.0068359375	14298.041015625	12288.044921875	15206.26953125	12587.298828125	16070.455078125	17593.25	12642.568359375	13458.2197265625	13770.5751953125	11421.7041015625	13740.9013671875	15499.4921875	13293.1767578125	15966.9267578125	13656.1064453125	12083.25390625	14915.8408203125	13201.7724609375	15412.7626953125	16596.216796875	12945.859375	13750.1279296875	13351.384765625	15376.5703125	11966.2421875	4479.876953125	9387.123046875	12111.35546875	14700.6376953125	10827.654296875	8360.640625	16024.701171875	14761.080078125	15235.6787109375	15404.1044921875	13248.7216796875	16206.15625	15139.74609375	16478.150390625	15268.5166015625	15028.9599609375	14783.0986328125	16025.748046875	14525.8603515625	15368.197265625	14709.8466796875	14538.564453125	15607.537109375	15134.537109375	15533.4814453125	15840.1826171875	14429.666015625	15857.529296875	14309.392578125	15235.7998046875	14670.0439453125	15289.384765625	14047.8916015625	14209.9599609375	14424.615234375	15255.3623046875	10947.0625	13841.595703125	15164.5400390625	15891.2314453125	15734.77734375	14814.3583984375	15417.2109375	15535.7265625	12080.42578125	16500.40625	14730.736328125	16356.69921875	15566.4013671875	14957.7216796875	14330.5263671875	15623.2685546875	14759.8095703125	14922.748046875	14467.150390625	14064.7958984375	14733.150390625	14712.3857421875	15333.44140625	16302.2470703125	14036.4853515625	15637.1552734375	13885.1376953125	14727.150390625	14590.2587890625	14876.0595703125	13871.337890625	14376.6767578125	14055.3046875	14948.30078125	12512.8984375	13522.93359375	14351.9599609375	15184.333984375
1800	2100	15011.1298828125	12302.6640625	10984.4208984375	13449.7470703125	12382.6669921875	14244.7822265625	14869.5810546875	10643.298828125	12504.9970703125	12620.810546875	11348.7255859375	11875.42578125	13792.498046875	12558.923828125	14970.7578125	11795.916015625	10744.7158203125	12909.86328125	12269.880859375	14287.8017578125	14708.794921875	11783.3017578125	12398.009765625	10717.5927734375	13012.5224609375	12099.6630859375	4729.0166015625	9319.9990234375	10787.439453125	12713.19921875	10431.056640625	8037.5849609375	15138.0986328125	14064.8173828125	13864.25	14113.1845703125	11253.3515625	14518.552734375	13654.625	14976.3935546875	14595.212890625	13723.5517578125	13171.400390625	14682.5009765625	12881.7587890625	14190.4931640625	12786.380859375	13610.173828125	14320.9794921875	14602.38671875	14238.693359375	15165.71875	13479.5576171875	14659.021484375	13358.0751953125	14268.09765625	13538.4443359375	13947.248046875	12614.10546875	12929.169921875	13393.0595703125	13833.216796875	9222.6572265625	12344.8740234375	14531.447265625	14696.8193359375	15418.69921875	14117.8271484375	14417.5712890625	14615.5166015625	10954.6591796875	15137.3115234375	13104.17578125	14828.2216796875	14737.4814453125	13417.7392578125	13423.98828125	14694.5869140625	13016.7392578125	13735.451171875	12578.0322265625	13322.7529296875	13869.115234375	14398.892578125	14340.060546875	15205.6328125	13296.625	14618.994140625	13515.2607421875	14076.7578125	13659.6318359375	13537.8466796875	12483.9609375	13326.212890625	12780.2333984375	13933.171875	10986.306640625	11459.6796875	13591.64453125	14380.3515625
2100	2400	14200.2177734375	11486.0771484375	10230.2861328125	12037.8720703125	10555.693359375	13184.8017578125	13770.685546875	10007.33984375	11165.6103515625	10707.4462890625	9877.138671875	10799.658203125	12415.9716796875	11594.630859375	14272.0126953125	11465.0478515625	9901.03515625	12007.103515625	11307.94921875	12779.7265625	12969.677734375	10376.69921875	10882.609375	10361.033203125	12110.2744140625	11308.3720703125	4366.3232421875	8928.9423828125	9835.1259765625	11698.310546875	9797.1513671875	8048.01416015625	13763.041015625	12918.81640625	13171.6494140625	13459.6162109375	11430.67578125	14608.677734375	13332.4326171875	14849.1953125	13595.15625	14226.078125	12987.26953125	14313.056640625	12583.68359375	13493.291015625	11935.134765625	12125.982421875	13781.546875	13658.2822265625	14317.6201171875	14248.5576171875	12214.0517578125	13569.8232421875	12124.28515625	13313.275390625	11857.11328125	13551.015625	11415.4072265625	12386.79296875	11899.322265625	13372.6328125	8584.61328125	11846.83203125	13621.0126953125	13741.009765625	14158.859375	13381.431640625	13127.3310546875	13455.3759765625	10446.2890625	14408.666015625	13179.3095703125	14272.3076171875	13694.1171875	13742.30078125	11595.8154296875	13954.572265625	13380.083984375	13291.4794921875	12308.470703125	12470.9287109375	12760.443359375	11084.5615234375	12964.3857421875	13937.9248046875	11779.923828125	13603.115234375	11917.6025390625	13173.4208984375	12617.7060546875	12764.4130859375	12401.2958984375	12856.93359375	12734.138671875	12964.6494140625	10057.033203125	11590.974609375	12460.08984375	12596.759765625
2400	2700	13594.1416015625	10849.7158203125	9622.7548828125	10999.3583984375	10333.23828125	11859.70703125	13024.5908203125	8983.365234375	10563.5625	10056.890625	9546.8310546875	9662.9130859375	11215.275390625	10494.7548828125	13706.435546875	10394.2333984375	9567.5673828125	10951.3017578125	10121.64453125	12348.89453125	12412.40625	9634.69140625	10580.9892578125	10035.0029296875	10974.4716796875	10738.7822265625	4577.23583984375	8749.630859375	9129.3857421875	10541.0458984375	9471.2353515625	7858.607421875	13303.3125	12068.46875	12761.2119140625	12768.931640625	10290.337890625	13467.4736328125	12726.5947265625	14351.52734375	13285.029296875	13633.0546875	12171.00390625	13947.3896484375	11961.1220703125	13116.4140625	10838.6591796875	11466.9453125	13414.2548828125	14050.982421875	14378.3115234375	13547.1484375	11947.4111328125	12880.109375	11770.875	12901.6083984375	11395.0654296875	13287.3544921875	11111.546875	11840.25	11585.3095703125	12903.30859375	8493.814453125	11417.607421875	12424.9267578125	13213.1962890625	14089.84765625	12642.70703125	13413.0947265625	12992.48046875	9311.9287109375	13450.7265625	12430.8837890625	13430.2529296875	13673.7529296875	12998.099609375	11301.8857421875	13379.88671875	12784.904296875	12585.576171875	11371.2548828125	12072.6865234375	12290.4912109375	10755.49609375	12302.20703125	13696.0859375	11679.9833984375	12886.5048828125	11614.185546875	12524.9873046875	12238.0439453125	12246.474609375	11908.58203125	12048.7265625	12025.77734375	12510.087890625	9833.3603515625	10484.3984375	12326.6708984375	12371.935546875
