frame_start	frame_end	Left-Cerebral-White-Matter	Left-Cerebellum-White-Matter	Left-Cerebellum-Cortex	Left-Thalamus	Left-Caudate	Left-Putamen	Left-Pallidum	Brain-Stem	Left-Hippocampus	Left-Amygdala	CSF	Left-Accumbens-area	Left-VentralDC	Left-choroid-plexus	Right-Cerebral-White-Matter	Right-Cerebellum-White-Matter	Right-Cerebellum-Cortex	Right-Thalamus	Right-Caudate	Right-Putamen	Right-Pallidum	Right-Hippocampus	Right-Amygdala	Right-Accumbens-area	Right-VentralDC	Right-choroid-plexus	AirCavity	Skull	Vermis	Pons	CSF-ExtraCerebral	Head-ExtraCerebral	ctx-lh-bankssts	ctx-lh-caudalanteriorcingulate	ctx-lh-caudalmiddlefrontal	ctx-lh-cuneus	ctx-lh-entorhinal	ctx-lh-fusiform	ctx-lh-inferiorparietal	ctx-lh-inferiortemporal	ctx-lh-isthmuscingulate	ctx-lh-lateraloccipital	ctx-lh-lateralorbitofrontal	ctx-lh-lingual	ctx-lh-medialorbitofrontal	ctx-lh-middletemporal	ctx-lh-parahippocampal	ctx-lh-paracentral	ctx-lh-parsopercularis	ctx-lh-parsorbitalis	ctx-lh-parstriangularis	ctx-lh-pericalcarine	ctx-lh-postcentral	ctx-lh-posteriorcingulate	ctx-lh-precentral	ctx-lh-precuneus	ctx-lh-rostralanteriorcingulate	ctx-lh-rostralmiddlefrontal	ctx-lh-superiorfrontal	ctx-lh-superiorparietal	ctx-lh-superiortemporal	ctx-lh-supramarginal	ctx-lh-frontalpole	ctx-lh-temporalpole	ctx-lh-transversetemporal	ctx-lh-insula	ctx-rh-bankssts	ctx-rh-caudalanteriorcingulate	ctx-rh-caudalmiddlefrontal	ctx-rh-cuneus	ctx-rh-entorhinal	ctx-rh-fusiform	ctx-rh-inferiorparietal	ctx-rh-inferiortemporal	ctx-rh-isthmuscingulate	ctx-rh-lateraloccipital	ctx-rh-lateralorbitofrontal	ctx-rh-lingual	ctx-rh-medialorbitofrontal	ctx-rh-middletemporal	ctx-rh-parahippocampal	ctx-rh-paracentral	ctx-rh-parsopercularis	ctx-rh-parsorbitalis	ctx-rh-parstriangularis	ctx-rh-pericalcarine	ctx-rh-postcentral	ctx-rh-posteriorcingulate	ctx-rh-precentral	ctx-rh-precuneus	ctx-rh-rostralanteriorcingulate	ctx-rh-rostralmiddlefrontal	ctx-rh-superiorfrontal	ctx-rh-superiorparietal	ctx-rh-superiortemporal	ctx-rh-supramarginal	ctx-rh-frontalpole	ctx-rh-temporalpole	ctx-rh-transversetemporal	ctx-rh-insula
0	30	61.320579528808594	111.421142578125	171.44590759277344	176.5972137451172	326.23486328125	430.3865661621094	414.6910400390625	254.76803588867188	661.6988525390625	439.8010559082031	-54.68320846557617	268.4462585449219	481.26416015625	2095.165771484375	124.36396026611328	224.92379760742188	182.45391845703125	316.1405029296875	24.64336585998535	263.9073486328125	151.17495727539062	262.6712646484375	-4.91923713684082	862.9459838867188	494.1860656738281	850.9584350585938	5.011096477508545	162.66026306152344	6.246935844421387	115.4073257446289	351.9132080078125	42.93771743774414	249.328125	1867.3896484375	272.3070983886719	387.0917663574219	1099.7371826171875	366.4522705078125	431.952392578125	291.3407897949219	586.193359375	309.1460266113281	572.7647705078125	445.53564453125	1283.5223388671875	314.2308349609375	191.8601531982422	583.9286499023438	610.4820556640625	901.2975463867188	749.6837768554688	740.2383422851562	390.6928405761719	149.7234344482422	577.51611328125	487.6561279296875	1005.709716796875	496.8568420410156	488.9537353515625	310.127197265625	509.4564514160156	456.0585021972656	269.9938659667969	603.2850952148438	1492.448974609375	920.7703857421875	245.65325927734375	559.0821533203125	394.70489501953125	1013.531982421875	1230.5465087890625	296.7622375488281	241.55288696289062	189.45294189453125	247.75694274902344	165.95579528808594	780.9674682617188	557.415283203125	-102.65692901611328	250.5531463623047	378.5760192871094	286.6628723144531	551.4349975585938	175.76309204101562	639.0858154296875	293.6624450683594	524.2675170898438	633.304931640625	299.66033935546875	440.8921813964844	590.7709350585938	358.23748779296875	323.5947570800781	102.34181213378906	425.5434265136719	350.39923095703125	495.8896179199219	355.8084716796875	555.4574584960938	762.6508178710938
30	60	1389.6168212890625	4507.5771484375	7001.9150390625	9315.88671875	10357.806640625	13340.990234375	1561.310791015625	6006.74951171875	9286.3994140625	3384.14208984375	2673.236083984375	6679.76708984375	7342.919921875	36330.0703125	2446.06005859375	4592.484375	6747.32421875	8807.8515625	10390.947265625	12233.3564453125	2020.02099609375	6161.03125	4480.26611328125	12944.7333984375	7547.26806640625	9940.5830078125	467.2492980957031	2419.416015625	9526.1572265625	5875.07373046875	3749.99462890625	1391.29296875	11551.435546875	18848.927734375	14017.4609375	14806.5859375	11769.837890625	9709.263671875	11265.0009765625	10686.880859375	12995.4912109375	9947.23046875	11889.873046875	14451.4638671875	16587.255859375	10283.8369140625	9585.5859375	13124.763671875	12453.58203125	18269.919921875	14405.287109375	19335.9765625	12723.4287109375	14262.009765625	12974.0537109375	13245.7158203125	17645.314453125	13547.25390625	13116.921875	12351.3544921875	10300.7578125	12947.4609375	12167.1923828125	7874.98974609375	18528.748046875	11487.642578125	10744.2041015625	4825.81103515625	13749.0908203125	19123.541015625	10733.265625	10051.9140625	8879.5244140625	9886.91015625	14030.3876953125	11011.96875	13739.693359375	14958.0732421875	4497.91796875	9003.0732421875	8583.1201171875	11186.9501953125	11688.3916015625	12985.759765625	12116.3291015625	22205.80078125	14870.9921875	10253.6201171875	11203.3671875	13770.3095703125	3826.350830078125	13071.9111328125	11964.2763671875	11258.5107421875	9847.2890625	10660.46484375	15204.6533203125	8126.37744140625	9218.4228515625	10978.9072265625
60	90	4695.7236328125	13163.8486328125	18919.048828125	24092.8984375	22288.4375	35958.59375	5433.61572265625	13466.21875	21750.27734375	15029.724609375	8583.947265625	996.8038940429688	20046.89453125	90626.7421875	8001.7509765625	12899.728515625	19496.158203125	22816.494140625	26713.8046875	32759.685546875	5748.2353515625	17698.486328125	14393.9140625	31545.609375	19946.1875	40757.63671875	1905.85546875	6342.0498046875	27410.228515625	17767.388671875	5870.19482421875	3929.484130859375	30422.2265625	56003.3984375	37463.20703125	52223.7578125	28974.236328125	26873.2421875	31113.388671875	28982.767578125	39209.94921875	28245.51171875	29281.607421875	41592.3203125	46482.60546875	29834.505859375	25752.671875	42133.140625	34934.7890625	44453.609375	34872.421875	48535.39453125	36591.28125	37701.88671875	36143.60546875	33422.45703125	42132.515625	36878.1875	37608.12109375	39438.27734375	28422.28125	34847.79296875	27536.490234375	25193.412109375	40258.22265625	26186.66796875	25873.24609375	6409.7841796875	35148.0	48118.90625	20253.208984375	31335.376953125	25568.423828125	27586.048828125	44226.81640625	28228.8515625	37823.625	34261.99609375	7308.22412109375	27244.59765625	22724.396484375	31200.40234375	26933.794921875	37079.9140625	31666.93359375	65910.0234375	43020.79296875	28976.3984375	35242.046875	39488.66796875	1576.1165771484375	36248.7265625	33365.0546875	36069.0234375	29028.46875	32446.44921875	52020.66796875	20897.400390625	17595.21484375	25494.755859375
90	120	8296.328125	23489.36328125	33989.06640625	39599.42578125	46733.8046875	60516.91015625	11537.1474609375	22150.521484375	38250.6171875	24826.625	19338.76171875	28962.126953125	32722.396484375	102150.703125	11287.083984375	21016.130859375	34074.28125	39158.234375	47948.20703125	59251.82421875	14373.03125	33939.08203125	27585.619140625	62514.234375	29055.931640625	60971.71484375	1515.7711181640625	9799.822265625	48961.33203125	32467.05859375	9787.9140625	6811.99755859375	58968.078125	64251.86328125	65590.6015625	78265.296875	40903.765625	49034.6953125	54202.5625	48770.703125	61095.51171875	49528.59765625	49768.85546875	69350.6171875	68676.4921875	50670.0078125	41262.0078125	66130.96875	57803.03515625	71783.1796875	67914.703125	94870.328125	63591.37890625	59002.55859375	62379.8984375	60355.3671875	54175.203125	66402.7421875	65005.72265625	68053.6953125	44293.8828125	58932.6171875	55002.1328125	32950.58203125	60395.00390625	48053.9765625	50302.65625	30416.337890625	61952.53125	82633.6328125	35180.12109375	52557.13671875	51328.890625	48045.28515625	66537.8515625	51319.0078125	60488.68359375	62184.8984375	27304.62890625	50020.0	30980.822265625	62408.88671875	52617.04296875	59511.31640625	61028.15625	111728.84375	76465.7734375	53905.73828125	61710.25	70300.5859375	23258.4375	67095.59375	61334.25390625	62914.953125	48459.109375	57374.5859375	81275.796875	35477.70703125	32826.97265625	40644.38671875
120	150	11692.8359375	31874.376953125	45595.03125	52652.40625	77554.96875	83908.046875	20472.59765625	28363.724609375	52274.05078125	25400.15625	32138.990234375	34549.83203125	37133.03125	155389.359375	10552.5556640625	28911.283203125	47457.3203125	56171.1953125	79299.5234375	84992.46875	13851.8310546875	43641.40234375	36824.30078125	40055.421875	29708.931640625	124903.4765625	-1817.1478271484375	12872.583984375	55454.2109375	41815.7734375	18664.87109375	9944.5224609375	73343.1171875	31858.9140625	91123.953125	103577.609375	34808.98046875	64271.46484375	74524.5625	59847.80859375	67527.984375	69092.515625	68836.8125	88057.828125	62782.01953125	66607.7265625	33525.3125	80800.859375	76161.34375	69756.046875	96129.953125	133464.625	87170.6015625	65930.7890625	77826.8125	82894.0	63405.265625	87193.640625	82270.9140625	85595.46875	55311.1015625	77586.7265625	89374.9375	45152.2578125	56525.1328125	54499.1328125	69889.8984375	58091.5234375	83267.25	107415.859375	37496.44140625	70578.1015625	75415.6484375	61430.34765625	72783.9921875	78703.875	69606.3984375	85320.5546875	67517.0546875	66531.8359375	26634.673828125	79741.1796875	72093.7109375	78950.4296875	90653.375	137534.8125	93080.1328125	69883.703125	81437.0390625	86692.6875	48726.1640625	90244.296875	82989.3046875	88829.8203125	58931.30078125	80252.6953125	94673.6328125	36438.78515625	65840.8046875	50387.2265625
150	180	12434.8271484375	32598.958984375	49266.390625	54282.9921875	80797.234375	89104.875	21543.462890625	29076.01171875	60422.0546875	33995.38671875	29260.74609375	45000.8828125	33438.234375	134463.40625	10847.197265625	29435.58984375	50067.125	59325.51953125	80626.125	88324.6640625	17341.611328125	48772.26953125	42268.15234375	47630.5234375	35545.484375	115187.7578125	-2190.9931640625	12944.9111328125	58152.1015625	44898.09765625	14137.0693359375	10367.5390625	76911.0234375	38570.125	92243.0234375	114439.375	34553.5625	68181.0625	78428.4296875	63547.80859375	69845.4296875	74056.7890625	70432.1015625	86651.2890625	70026.3828125	70287.3515625	27984.578125	81373.5703125	79334.765625	69400.0234375	99022.1640625	134016.96875	89939.2421875	64182.58203125	82606.4296875	85958.40625	60422.62890625	89942.359375	87926.8515625	92041.7734375	59789.0390625	81480.828125	95772.0703125	50116.69921875	65523.69921875	59730.5	78067.9296875	68661.53125	91444.3203125	113056.03125	29610.36328125	71756.875	82099.703125	62301.2109375	73817.9375	83785.7265625	70547.5390625	86618.8671875	73367.1875	73165.25	37596.65234375	85745.546875	78707.1953125	78234.578125	99098.9453125	136390.734375	100582.3828125	76516.7265625	87376.3984375	94018.375	57883.1484375	95469.453125	87000.3984375	95592.4609375	63206.9453125	84530.21875	95024.421875	35750.6484375	72403.125	54837.13671875
180	240	14098.1572265625	28807.501953125	48368.6171875	55392.875	81402.390625	82866.9609375	27441.869140625	28376.390625	50971.85546875	35856.6484375	19898.751953125	68130.0625	36216.453125	110191.90625	11624.3955078125	28683.943359375	47291.82421875	58582.05078125	80834.8984375	85493.203125	18031.953125	48847.78125	39909.99609375	34808.5625	36468.37890625	104417.671875	-459.5953674316406	12591.1787109375	57493.7890625	42329.40625	9685.4560546875	10546.0390625	72539.3671875	42649.19140625	89689.96875	100910.5	36667.9453125	67235.578125	75302.40625	63553.01953125	68151.4453125	68005.3828125	71251.1640625	80319.5234375	61585.83203125	69029.9453125	42437.86328125	81316.8203125	74423.375	72355.7578125	91360.6484375	120134.1015625	87444.8359375	70568.0390625	82002.9296875	81520.96875	56566.4140625	89132.546875	86575.84375	88311.34375	58439.43359375	78465.921875	72936.9609375	51368.83984375	64532.69140625	57558.95703125	73427.2265625	65888.078125	93131.65625	100320.453125	30202.57421875	70712.890625	77077.1640625	63664.6875	71268.1328125	79865.046875	67525.9609375	80870.9375	70760.6484375	69715.03125	37151.27734375	88161.625	72509.6015625	85875.359375	93343.2109375	129365.2734375	98995.1015625	76047.7421875	86197.4296875	88026.859375	60131.07421875	94506.1796875	86244.5390625	94020.359375	62470.3203125	81673.2890625	79422.1015625	37242.55078125	74414.8046875	52641.0
240	300	13377.349609375	26088.79296875	45114.64453125	52844.62109375	74751.7890625	79252.859375	31086.453125	28293.880859375	48051.65625	37476.4296875	14289.0537109375	71495.328125	37966.56640625	69849.2578125	11043.3037109375	23754.8359375	46069.62109375	57323.6328125	73811.453125	81348.1171875	19327.798828125	41557.5	38738.69921875	53524.76953125	38335.93359375	91369.1640625	1706.4688720703125	11471.125	55196.50390625	38534.3515625	3086.23974609375	10659.56640625	69493.421875	54815.1015625	87703.3828125	95673.8203125	47949.18359375	61769.98828125	71536.2734375	60665.54296875	62998.703125	65329.83203125	70691.046875	74530.1484375	60646.515625	67317.0234375	50043.67578125	78181.4921875	69200.421875	73178.8203125	84473.9453125	106783.0078125	82088.9609375	70118.4296875	79026.21875	76129.140625	56464.515625	85916.515625	83698.9765625	84758.0546875	56213.9296875	74914.2890625	61473.18359375	50394.27734375	69280.6796875	56327.9140625	71536.78125	67236.890625	90897.5703125	92212.546875	43368.65234375	65380.26953125	73364.90625	63665.1015625	75780.71875	75789.4921875	64535.125	71364.1796875	60790.52734375	68231.015625	47848.76171875	85644.78125	71348.4296875	86722.1015625	90297.8828125	119391.4375	93812.7734375	76297.0625	85107.7578125	81991.609375	66078.7890625	92225.2578125	84361.3125	90105.3046875	60262.9765625	78778.1171875	78941.90625	35135.03515625	70163.2421875	52177.5859375
300	360	14131.3017578125	24635.041015625	42404.421875	50940.046875	68413.6171875	72953.5546875	27648.84375	26424.400390625	44924.578125	40333.78125	10699.341796875	74746.015625	36824.39453125	59775.4921875	12019.6630859375	22960.66796875	42747.90234375	54188.3828125	65860.9921875	73527.265625	22708.021484375	37086.2109375	43942.26953125	54833.0625	37740.390625	69550.3203125	2157.242431640625	11036.7421875	49497.9140625	37050.3984375	1508.673828125	10674.5498046875	63455.2265625	55191.9765625	81347.3125	82707.34375	50795.9609375	55404.1640625	65875.890625	58556.8046875	54976.35546875	59777.57421875	64666.8671875	68101.75	55566.171875	60939.85546875	52750.76171875	71368.1484375	60931.77734375	70074.109375	75009.6484375	93604.109375	77126.609375	60840.359375	71780.125	68692.796875	54468.0703125	77178.3359375	77079.8125	75979.1640625	53805.41796875	68337.25	55740.9140625	46531.953125	56728.2578125	54683.953125	62215.2890625	66962.453125	84809.1328125	81680.5703125	41686.0390625	59276.3203125	67086.515625	60315.296875	65937.5859375	68139.5625	57478.0	64777.46875	53889.26953125	62621.109375	53835.2734375	79335.3125	64955.78125	81736.7578125	80570.7109375	95731.6015625	85242.7890625	73207.296875	78752.53125	72553.4765625	60242.2578125	84740.84375	76161.390625	80400.71875	55297.62890625	70828.390625	66518.2578125	36109.9140625	63034.54296875	51546.96484375
360	480	15740.1953125	24081.470703125	39128.765625	47927.14453125	55162.9296875	63514.09375	32020.095703125	27595.890625	40588.71875	40145.88671875	4961.09521484375	73226.265625	38000.87890625	16173.958984375	13929.8310546875	21633.89453125	39714.54296875	49485.73046875	53515.0390625	63942.94140625	23397.48046875	34982.71875	36357.0078125	61862.90625	40051.61328125	52519.93359375	3692.57275390625	10128.970703125	48985.58984375	34771.57421875	-1355.1883544921875	10832.9072265625	59433.8203125	56530.16015625	69778.78125	70919.875	48968.41796875	48767.0078125	58390.1796875	53000.1015625	53470.65625	54250.01171875	54455.88671875	60287.71875	41569.57421875	54978.34375	59933.875	65478.37109375	55466.37890625	60417.79296875	65505.7890625	79091.6640625	68415.5625	62866.37890625	65665.3203125	63127.84375	52302.19140625	68076.7265625	67136.859375	68325.9453125	48628.59375	59220.34375	44875.37890625	46752.796875	55308.21484375	49370.54296875	56138.66015625	62341.734375	74916.1328125	73339.546875	44667.15625	52987.11328125	61083.6875	57187.5390625	65028.8984375	62192.42578125	45394.25390625	57165.78125	43455.375	57032.80859375	54574.0859375	72803.0859375	54887.66015625	70235.890625	73919.28125	82748.0234375	75641.515625	69152.7890625	70092.0390625	64186.27734375	54235.8046875	73685.5078125	67885.9609375	74881.640625	51018.23046875	65170.40625	58827.15625	34771.0859375	57208.95703125	49716.328125
480	600	16854.396484375	22895.0234375	34986.14453125	42379.79296875	44163.96875	51688.296875	31680.2421875	26763.078125	33305.10546875	37965.37109375	2202.1494140625	56753.828125	38769.0	-3336.42041015625	15684.833984375	22281.046875	35528.6953125	43830.7265625	43539.5	52870.234375	28677.431640625	29579.255859375	37418.47265625	46691.609375	37232.75	31940.9921875	2955.48779296875	10363.8662109375	37828.6796875	33256.125	-3186.0048828125	10614.4921875	50699.11328125	55399.86328125	57435.56640625	62129.84765625	45402.09765625	42723.140625	49597.4453125	45847.77734375	46333.15234375	46207.3984375	46203.1171875	51201.921875	37565.99609375	45905.015625	57099.7265625	57588.1640625	47643.9453125	50434.68359375	56150.265625	67698.640625	55960.078125	54738.31640625	55132.18359375	55994.33984375	46560.00390625	56489.8125	54703.41015625	58260.8203125	41279.55859375	48993.35546875	31528.58984375	44568.96875	48144.7578125	44533.9140625	50239.78125	50254.37109375	61178.07421875	58836.890625	31822.052734375	46780.078125	51882.0078125	52070.4921875	57534.33984375	53218.0546875	38470.26953125	46694.5625	36003.8203125	49357.43359375	54226.74609375	62088.07421875	44914.46875	60788.85546875	59894.62109375	69489.546875	64637.73828125	59117.1875	59208.59765625	54267.34765625	43670.1875	60791.23046875	56078.59375	63830.515625	46456.1875	55361.34765625	45858.1015625	29820.41796875	45000.8203125	43496.5
600	900	17292.86328125	21311.9921875	27255.8828125	35170.703125	33673.2421875	39155.0859375	30494.0390625	23096.55859375	23821.71484375	33266.6640625	-591.7846069335938	42822.41796875	34577.375	4870.607421875	16057.0244140625	20288.15234375	27651.291015625	35442.35546875	33049.8828125	38581.9375	29546.43359375	24371.26171875	31282.658203125	38202.40625	33989.4453125	24769.90625	1189.708251953125	10806.7607421875	27039.28125	27751.96484375	-2388.611083984375	10361.4169921875	39180.48046875	42903.89453125	43079.90625	43940.12890625	40037.58984375	34091.3984375	37243.01171875	38296.0	34392.4453125	35187.52734375	36404.26171875	38414.84765625	35648.203125	35638.78515625	45986.703125	42921.75	36197.13671875	42854.703125	39519.27734375	45281.5	42504.7734375	40992.546875	41313.6796875	39348.9375	36267.90234375	42733.83203125	41372.296875	42310.2890625	33344.16015625	37369.6953125	16486.3828125	36507.49609375	37293.71484375	36496.1015625	36939.62890625	39705.8359375	45587.9765625	46403.5390625	28819.763671875	37194.875	39158.234375	41368.9140625	41159.859375	40113.56640625	33892.80859375	34721.33203125	31338.9921875	37999.015625	37778.9453125	43785.484375	36937.328125	47896.49609375	45429.4453125	46553.51953125	48527.63671875	43974.5546875	43960.453125	40312.578125	37368.4453125	47004.91015625	42661.46875	47118.6953125	35863.64453125	40384.35546875	34854.3125	23880.544921875	35773.93359375	35636.74609375
900	1200	17349.56640625	20221.375	19653.712890625	26535.40234375	23449.587890625	26509.42578125	29548.634765625	19194.64453125	17576.625	24605.021484375	-1240.443603515625	23019.134765625	28147.685546875	8912.1142578125	16677.169921875	18658.0	19849.689453125	26808.841796875	23443.05078125	26041.685546875	26243.052734375	17931.578125	26622.98828125	23568.587890625	26779.71484375	25631.34765625	-718.72705078125	11098.9814453125	20666.1953125	23038.16015625	102.76825714111328	9628.220703125	26529.845703125	33039.4296875	29867.935546875	31231.998046875	29116.19921875	26043.5390625	25927.02734375	29102.06640625	25801.69140625	24754.169921875	25341.552734375	27928.396484375	28326.2734375	25742.00390625	29995.5	30085.0703125	25609.6015625	29562.46484375	29338.31640625	30756.0234375	29151.802734375	27329.646484375	27811.748046875	28070.353515625	25332.6484375	30437.70703125	28275.642578125	29483.8828125	24193.88671875	25922.650390625	10827.822265625	28886.8828125	25901.404296875	28139.2734375	26909.646484375	25831.65234375	31127.89453125	31743.451171875	20323.787109375	28907.140625	27600.501953125	31204.244140625	29822.880859375	28155.23046875	25395.826171875	26024.841796875	24848.806640625	26731.51953125	24154.892578125	29853.19921875	25781.908203125	32007.083984375	31161.611328125	27696.458984375	33361.6328125	29624.107421875	29793.28125	27361.5078125	26997.39453125	32824.0546875	28997.939453125	32330.904296875	27212.1796875	27879.28515625	25535.05078125	17941.2421875	24518.515625	26432.197265625
1200	1500	17157.64453125	17449.88671875	14913.623046875	20258.92578125	16584.9609375	18771.318359375	25577.1328125	15599.609375	13446.21484375	20912.01171875	-1146.1744384765625	10522.146484375	25891.16796875	6782.080078125	16661.13671875	16208.8203125	15403.4248046875	20110.0234375	16576.876953125	18950.75390625	23882.619140625	12318.1298828125	20959.494140625	13581.896484375	22998.876953125	18322.607421875	-873.4118041992188	10600.876953125	14491.7578125	20001.046875	523.9912109375	9305.2353515625	21316.154296875	23680.224609375	23149.369140625	24728.845703125	21766.3203125	21936.728515625	20269.521484375	25278.80859375	23733.216796875	19671.45703125	20880.07421875	24208.375	22325.431640625	19531.796875	26522.890625	22116.193359375	22124.529296875	24801.080078125	21892.251953125	24484.970703125	23403.107421875	23542.0625	21458.044921875	21988.763671875	20309.40234375	24288.24609375	20897.978515625	22032.876953125	19281.412109375	20594.53125	6071.001953125	22015.650390625	20260.970703125	22867.02734375	21444.78515625	21530.884765625	24067.90625	25991.59765625	11513.8515625	25173.060546875	21689.748046875	26336.013671875	24251.0	22077.908203125	20325.923828125	20877.185546875	19860.763671875	21434.224609375	22368.013671875	23403.630859375	21571.02734375	27276.04296875	24086.755859375	22998.46484375	25584.615234375	23757.466796875	22091.240234375	21683.978515625	20983.326171875	25537.296875	22378.3515625	25382.1640625	21161.3515625	21996.373046875	19872.333984375	13919.7421875	19394.203125	22533.673828125
1500	1800	16511.5390625	15792.8310546875	12172.861328125	16793.72265625	12815.1220703125	15392.7060546875	20868.423828125	13161.55859375	11116.2802734375	15088.306640625	-955.3551635742188	7896.63916015625	19546.69921875	17798.88671875	16014.24609375	14549.90234375	12318.630859375	16650.4375	13806.2890625	14704.982421875	19365.1484375	11842.427734375	16226.0029296875	7358.359375	19474.220703125	14242.5068359375	-1424.493408203125	10715.6142578125	13644.8291015625	16869.828125	1911.1312255859375	9079.71875	18906.1015625	18105.775390625	20016.537109375	19580.857421875	18304.962890625	20044.904296875	17682.787109375	21353.45703125	17956.138671875	16262.41015625	16956.703125	21109.6015625	19640.86328125	17444.021484375	19020.037109375	17077.34375	18804.09765625	19267.755859375	19248.447265625	18335.494140625	19578.021484375	19444.892578125	17226.53515625	18006.646484375	17348.083984375	20283.98046875	17800.19921875	18895.400390625	16141.158203125	17727.458984375	5888.55224609375	19592.322265625	18844.955078125	19778.986328125	17333.6796875	19342.65234375	21085.17578125	22900.736328125	11559.0146484375	21047.255859375	18161.2109375	22507.05078125	21096.14453125	19320.3828125	16801.060546875	19091.7734375	18677.259765625	17442.8515625	16954.16796875	16842.44140625	18515.34765625	21611.587890625	21206.36328125	17632.08203125	20507.439453125	20346.119140625	17956.533203125	17667.533203125	17139.908203125	21907.677734375	18028.30859375	20676.66015625	17340.185546875	18436.736328125	15302.7021484375	14429.40625	16586.751953125	17987.841796875
1800	2100	16086.3212890625	13745.80859375	10547.4345703125	14450.0029296875	12003.8935546875	12835.314453125	16123.0185546875	10123.111328125	10305.7265625	13894.8486328125	1706.8929443359375	2142.738525390625	17004.451171875	9222.0068359375	15871.2255859375	12825.5	10404.666015625	13634.583984375	10886.25390625	13208.0361328125	15487.55859375	10521.0478515625	13124.16015625	1146.7764892578125	15169.791015625	14734.9287109375	-952.4994506835938	10753.552734375	12547.421875	14440.00390625	4263.23779296875	8661.939453125	17322.251953125	15729.6484375	16714.58984375	16550.48828125	12058.265625	18058.517578125	14915.0810546875	18606.296875	17387.91796875	13532.091796875	13759.9306640625	18330.791015625	15389.1640625	14897.80859375	14433.4423828125	15528.1376953125	16454.962890625	19217.1953125	15981.3427734375	17222.9609375	16550.6796875	16729.14453125	14760.138671875	15937.5537109375	15702.23046875	17197.43359375	13902.2626953125	14474.8662109375	13945.73046875	15049.6396484375	647.0783081054688	16496.125	17599.431640625	17265.169921875	17295.998046875	18912.169921875	18219.2265625	19608.69921875	8287.0205078125	20210.185546875	15018.0693359375	19367.455078125	17396.390625	15141.1484375	14486.3544921875	17642.47265625	14505.892578125	15323.203125	11508.3916015625	14263.4423828125	15562.78125	20355.447265625	18313.724609375	15291.0595703125	17085.09765625	17268.296875	16495.28515625	15902.291015625	15731.34765625	17565.28125	14098.6328125	16362.4833984375	13925.703125	16037.05859375	12034.013671875	10053.552734375	16384.748046875	16525.873046875
2100	2400	15074.943359375	12927.71875	9662.44140625	12803.0283203125	10606.798828125	11868.095703125	15060.1748046875	9514.91015625	9116.5205078125	9524.845703125	-1250.2593994140625	-686.5879516601562	15296.4716796875	19822.775390625	15038.4150390625	12931.40234375	9474.4365234375	12845.0107421875	11064.1865234375	11842.9482421875	13349.5498046875	7984.3203125	11890.6005859375	462.5020446777344	14596.9677734375	21755.578125	-1219.02001953125	10200.716796875	9494.3388671875	13138.7255859375	3224.619873046875	8747.6923828125	14264.841796875	16920.904296875	16508.302734375	15863.5869140625	14460.373046875	18922.6171875	14616.9296875	18718.84375	15401.46875	15993.9306640625	14421.3291015625	19290.29296875	16076.05078125	15125.8427734375	10942.224609375	12121.873046875	15906.892578125	16739.669921875	18095.978515625	15595.171875	15129.3623046875	16548.595703125	12877.9287109375	15072.7490234375	11951.7587890625	17294.421875	12378.2626953125	15698.609375	11257.708984375	14807.02734375	900.2621459960938	16692.78125	18260.892578125	16859.677734375	14761.115234375	17132.19140625	15907.7939453125	17275.576171875	8228.404296875	18391.1640625	15123.3046875	18240.615234375	15911.6201171875	17035.767578125	11855.7568359375	17216.515625	17997.01171875	15053.7509765625	13439.9794921875	13553.3623046875	14949.7939453125	13792.0458984375	16289.796875	12525.5	14697.4072265625	15455.4697265625	14017.169921875	15082.1279296875	13675.5830078125	17445.908203125	15272.625	17688.923828125	15223.6640625	14746.1416015625	10351.119140625	11375.421875	14171.9453125	14059.6005859375
2400	2700	14412.10546875	12537.6416015625	8860.17578125	11455.51953125	10516.31640625	9819.70703125	15283.1005859375	8090.97509765625	8825.2060546875	9047.76171875	-18.54875946044922	-2120.06396484375	13480.814453125	11038.4248046875	14636.16015625	11328.466796875	9243.6005859375	11469.56640625	8738.6318359375	11177.49609375	13014.8955078125	7328.83544921875	11573.578125	1441.3160400390625	12863.34375	14996.54296875	-673.90869140625	10010.6162109375	8914.3837890625	11717.6982421875	3587.087646484375	8518.166015625	14449.87109375	14024.109375	15704.0771484375	14162.1826171875	12276.7099609375	16921.08984375	14107.9658203125	18270.525390625	15759.0712890625	15261.8896484375	12967.83984375	19421.3125	15237.7490234375	14490.4697265625	8650.4697265625	10770.3056640625	15636.3525390625	18251.482421875	17790.435546875	14740.736328125	15068.5751953125	15510.869140625	12721.5439453125	14810.5458984375	11764.505859375	17312.458984375	12146.8056640625	14298.509765625	10976.7734375	14236.5419921875	1690.729248046875	15390.734375	14228.3681640625	16187.3134765625	15105.033203125	15945.421875	17285.240234375	16349.9970703125	4970.224609375	16766.00390625	14024.1318359375	16970.732421875	17543.80859375	15485.544921875	11369.91015625	15949.1162109375	16360.65625	13952.5439453125	11779.7431640625	13259.267578125	13774.513671875	13251.33203125	14940.80078125	12970.49609375	15473.2275390625	14698.9306640625	13161.21875	13696.44921875	13824.7177734375	16184.7216796875	14132.4423828125	15418.763671875	13853.3134765625	13935.833984375	10332.75390625	9124.9716796875	15944.46875	13725.8408203125
