frame_start	frame_end	parasubiculum	HATA	fimbria	hippocampal_fissure	HP_tail	presubiculum-head	presubiculum-body	subiculum-head	subiculum-body	CA1-head	CA1-body	CA3-head	CA3-body	CA4-head	CA4-body	GC-ML-DG-head	GC-ML-DG-body	molecular_layer_HP-head	molecular_layer_HP-body	Lateral-nucleus	Basal-nucleus	Central-nucleus	Medial-nucleus	Cortical-nucleus	Accessory-Basal-nucleus	Corticoamygdaloid-transitio	Anterior-amygdaloid-area-AAA	Paralaminar-nucleus
0	30	1292.64252	1252.70558	1214.42069	1467.76987	1196.22456	1476.85242	1476.40062	1046.12027	1132.88626	1007.61656	832.46698	1106.27632	1029.15899	1310.04543	1026.33062	1430.26517	1046.28716	1104.19928	1074.86193	715.03796	1167.6986	750.12001	742.47264	777.27121	1028.0105	1556.79502	3143.89061	730.32521
30	60	11176.1933	9137.81529	8993.3119	10993.606	8465.33345	10654.5118	10325.09778	8203.48369	8461.52491	8841.27582	7444.78822	10766.8987	8080.12966	10197.38973	8857.72013	10220.46127	8891.5995	9353.26135	8822.35092	7471.27744	8726.55454	9370.68097	9253.4681	9406.79829	9004.50211	8837.92043	12244.11853	7819.29902
60	90	19874.00017	16234.54369	21032.43315	21420.63173	19419.0402	21709.07974	20722.32236	19655.83136	20075.5783	19381.88476	18030.26892	20535.12714	19864.28715	22293.23315	21330.07639	21469.45733	21065.79837	20980.68887	20467.19381	17478.38954	19851.9432	16997.13439	15708.95052	16342.83198	18721.50783	18765.84555	26589.27093	18373.9873
90	120	28687.1161	23441.09354	30877.76714	30739.92735	32171.87864	32550.22554	34145.44485	29719.14556	31191.35919	27595.44282	26991.50877	30841.6647	28669.35761	32495.60254	31179.77984	30764.20253	30914.58889	30720.90688	30944.72548	24886.05472	28233.40699	29810.60774	27816.41732	26879.47038	27313.17131	26594.35475	34945.12235	26448.18913
120	150	32540.06846	27987.64149	38322.73968	36710.65561	37708.78686	36675.19845	38220.33834	36372.74485	36648.07279	34490.42571	35615.92183	35183.06654	35852.29922	37825.24269	37654.91666	36134.3765	38362.2913	37331.92721	38029.27061	32749.57872	34343.87794	33175.23018	32696.34857	30340.56217	32553.00509	30946.16925	37428.27856	31699.80658
150	180	30966.33099	28813.69504	39189.26613	36087.09897	36897.54476	37896.4059	37390.13815	37578.03451	39989.09358	33528.08605	34462.9227	34349.28754	36813.44384	36448.82072	39381.45681	35400.60392	39745.0925	36359.44266	38523.28039	34593.236	33664.43513	36217.18077	32422.88867	31566.18652	35332.45462	31942.00587	35510.42153	33199.6243
180	240	32109.48088	29437.69859	37645.23482	36370.69511	35864.58879	39308.69796	36715.05497	38422.86226	39225.55242	34406.97343	34283.8195	34863.60973	35032.98415	38406.58765	39088.28996	37039.88774	39190.31491	37702.4768	37702.08863	35057.65152	35966.81407	35486.60774	31984.23763	32869.2698	35611.79324	30929.48067	34255.48455	34790.59716
240	300	31156.05604	28904.08499	36619.51804	33976.95769	33131.1151	34686.95576	33197.00632	34681.54033	37354.25447	31843.28787	31734.06513	31105.1497	34430.29388	32319.32722	38065.57712	31748.1694	37789.05078	33307.02315	35907.13606	34787.17322	34613.79385	32500.55504	31205.5556	31991.71039	34613.83457	30582.6923	33635.54987	33736.4017
300	360	26971.16714	27125.59314	33681.97736	31927.33165	29167.96327	32595.39545	33166.00053	34843.55955	34449.9123	31365.64774	30569.45465	31870.97419	30776.67777	34782.25052	33823.39158	33432.46217	34037.00364	33897.20008	33166.56928	34093.77885	33661.94936	30120.65794	27903.41914	29447.89784	31813.98819	28700.00716	32895.0784	32285.95802
360	480	25844.75791	27069.32749	30327.03329	29307.30724	27551.54614	30690.10769	29260.83938	32224.22709	31605.85834	29321.15519	27324.27509	28559.71962	27669.19047	30986.50153	30873.42386	30281.48486	31000.30004	31223.15158	29998.74109	31191.42395	30553.9472	29043.81565	27759.52773	29072.63444	30007.18622	27008.23533	29531.79813	30785.44342
480	600	22967.02036	23101.56023	25426.20332	25976.74191	24049.74342	27641.68006	25548.43428	29111.59537	27139.44713	26572.5086	23099.46899	24908.95069	23332.19521	27169.71147	25775.77577	26717.89284	25898.50116	27961.36756	25242.014	29051.99804	29053.47298	25564.26029	25182.48594	25913.69813	27871.95349	24130.95124	27414.08772	28287.88306
600	900	19651.67216	19907.05797	22472.99381	21709.17138	20277.87857	23428.30556	21620.39291	24538.85837	22867.33381	21621.84489	20324.97929	20404.51235	20761.56531	22194.42874	22116.24691	22007.9945	22271.81237	22961.4442	21719.11617	25137.40132	22754.28664	22339.99443	22504.82904	22552.42079	21972.14434	19786.61044	22747.1694	22482.30881
900	1200	15783.64786	18290.31462	19367.06695	17812.82057	16954.20621	19035.93794	18386.21553	20451.11763	19495.19761	17843.10589	17435.98878	17524.91938	18429.66883	18124.09517	18894.517	17971.49922	19067.40314	18819.98348	18687.17725	20657.52916	18783.08376	19590.78638	20713.38125	20913.60872	19324.94835	17973.52504	19318.35721	18666.97016
1200	1500	13665.02543	15324.26597	17440.57168	15265.31181	15203.74732	15676.78942	15543.32401	16959.25217	16162.62607	14975.92797	14937.3034	14997.46933	15956.50719	15305.18081	15943.94752	15286.11643	16075.18984	15552.21274	15698.21315	18059.67666	16114.89444	15872.82119	17483.37715	16869.67144	15701.35617	14984.05432	16229.15501	15678.92109
1500	1800	11570.75382	14157.73735	15091.14581	13288.10965	13688.07683	13214.69155	14048.47604	14904.30668	14195.26005	12977.37144	13394.96483	13802.92887	14278.85423	13047.32686	14074.52451	12971.03363	14130.83771	13387.30234	13982.52796	16455.44266	13863.97637	16544.04667	17760.86842	16638.93484	14723.33106	13262.45458	13757.48788	13245.71817
1800	2100	10359.33381	12322.75729	14184.96795	11543.38563	11803.42575	11857.6588	12328.70307	12774.69482	12719.31197	11506.43625	12839.5906	12197.55792	13948.85038	11513.88814	13070.45061	11643.2303	13157.90768	11663.7499	12979.10112	13994.88314	11631.8112	13785.09228	14844.51855	14620.71015	12638.95694	11773.5623	11690.05579	11046.97317
2100	2400	9868.74198	11203.25553	12845.7246	10877.51792	10972.57759	11226.75768	11355.26732	11827.85373	11539.52008	10350.46789	11507.73538	11593.69474	12556.47839	10727.46544	11642.18709	10870.51853	11668.4357	10829.52121	11587.60862	12038.5954	10250.05511	13231.67651	13495.72142	12597.45787	11032.99744	10195.00646	10671.14788	9765.93139
2400	2700	8441.97285	11011.13201	11540.46436	9694.84734	10466.40897	9606.42662	10477.54144	10351.81075	10865.21945	9399.35189	10784.73278	10019.14159	11527.93866	9086.47567	10625.30968	9232.84667	10731.61724	9486.67888	10691.01555	10985.1053	8893.62483	10769.23264	12370.4959	11843.64836	9793.25535	9467.48542	10153.74809	8699.06118
2700	3000	8309.81749	9802.47828	11150.52319	8770.45938	8850.35067	8509.65324	9144.75752	9365.42944	9447.35499	8672.18086	10046.4079	9523.43775	11103.30971	8747.30548	10102.22885	8731.00235	9985.5589	8573.29748	9884.77958	9975.98179	8686.12914	10447.1502	10819.96113	10160.2806	9210.95973	8551.77253	9607.19096	7983.58133
3000	3300	8205.19631	10386.60744	10450.41	8636.65675	8605.58995	8683.13456	8403.88076	9178.90811	9057.44717	8649.6367	9212.85744	8821.51314	10626.18475	7837.63418	9387.88669	8198.50967	9306.36214	8428.89619	9178.60537	9122.92305	8165.88466	9780.3303	10436.5028	10181.26506	8654.85283	8770.99069	8921.46724	8004.10315
3300	3600	7571.70394	9012.09647	10356.20274	8340.88933	8197.95687	8860.41848	8648.97051	8746.72758	8681.2947	7740.64668	9256.73338	8600.45768	10245.06133	7813.90345	9358.45478	7960.1608	9316.73862	7976.09318	9152.9628	9241.03794	7278.01181	8498.75865	9403.01452	9274.39838	8082.44863	7991.6654	8100.40627	7067.71277
3600	3900	5821.49175	9574.53637	8806.41838	6807.1676	7836.67871	6886.82843	7599.02744	8125.05181	7363.27983	6904.25482	7301.08965	7674.50339	8163.94633	7306.81785	7499.75025	7386.51358	7508.66338	7034.38534	7407.89524	8134.30235	6525.92318	7859.88551	8240.39108	8543.02181	7273.54044	7239.57634	7921.38589	6161.96398
3900	4200	6088.09353	8044.55577	7723.54645	6484.19884	6833.87716	6323.13008	6616.92162	7316.0227	7003.95101	6667.89656	7358.32575	7001.32689	7862.53637	5922.95875	6926.57929	6208.06637	6986.19051	6396.26159	7048.33286	7918.65568	5973.7201	7677.47854	8130.8293	7879.60296	6437.0423	6357.98202	7208.47299	5994.66383
4200	4500	6060.49854	7623.23686	7397.77279	6398.36084	6709.35745	6507.70242	6318.32612	6714.19689	6574.43667	6480.52303	7576.77366	6962.40538	7330.89202	6031.35764	6701.0054	6382.13899	6772.97726	6214.54148	6878.09188	8064.19149	6350.17966	7440.4858	7069.98177	7214.16208	6781.00538	6165.84379	7069.12448	5525.41669
4500	4800	5332.02604	7125.88895	7240.80247	5833.62871	6804.77133	5577.75935	6262.87137	6559.8519	6743.70937	5947.9155	6889.19456	6095.30262	7046.05349	5164.06447	6332.04341	5565.50481	6492.54976	5680.45235	6609.45295	6356.42444	5092.56759	7359.96425	7055.00664	6706.901	5857.17877	5137.84237	5607.68865	4985.0287
4800	5100	5391.28057	6372.32545	6946.65654	5989.38828	6230.12301	6137.4725	5176.16332	6175.98584	5906.33378	5955.01889	7075.15255	7352.81576	7486.49428	6258.29327	6705.52072	6184.23593	6435.35518	6105.40294	6336.54609	6754.05074	4739.52012	7022.90922	8834.34808	7134.09288	5287.59984	5156.69453	6159.03191	4552.07672
5100	5400	5392.3027	5060.21473	5793.30937	5409.54696	5413.36183	5914.56752	4584.3302	6044.83178	4948.80328	6046.85022	5765.19776	5505.75188	6039.61122	5316.0838	5075.82161	5449.99096	4993.75841	5819.20185	5078.67427	6927.91412	4808.69856	5722.01694	5947.97555	5118.52131	4533.36215	4482.93909	5430.94401	4894.93089
