frame_start	frame_end	Left-Cerebral-White-Matter	Left-Cerebellum-White-Matter	Left-Cerebellum-Cortex	Left-Thalamus	Left-Caudate	Left-Putamen	Left-Pallidum	Brain-Stem	Left-Hippocampus	Left-Amygdala	CSF	Left-Accumbens-area	Left-VentralDC	Left-choroid-plexus	Right-Cerebral-White-Matter	Right-Cerebellum-White-Matter	Right-Cerebellum-Cortex	Right-Thalamus	Right-Caudate	Right-Putamen	Right-Pallidum	Right-Hippocampus	Right-Amygdala	Right-Accumbens-area	Right-VentralDC	Right-choroid-plexus	AirCavity	Skull	Vermis	Pons	CSF-ExtraCerebral	Head-ExtraCerebral	ctx-lh-bankssts	ctx-lh-caudalanteriorcingulate	ctx-lh-caudalmiddlefrontal	ctx-lh-cuneus	ctx-lh-entorhinal	ctx-lh-fusiform	ctx-lh-inferiorparietal	ctx-lh-inferiortemporal	ctx-lh-isthmuscingulate	ctx-lh-lateraloccipital	ctx-lh-lateralorbitofrontal	ctx-lh-lingual	ctx-lh-medialorbitofrontal	ctx-lh-middletemporal	ctx-lh-parahippocampal	ctx-lh-paracentral	ctx-lh-parsopercularis	ctx-lh-parsorbitalis	ctx-lh-parstriangularis	ctx-lh-pericalcarine	ctx-lh-postcentral	ctx-lh-posteriorcingulate	ctx-lh-precentral	ctx-lh-precuneus	ctx-lh-rostralanteriorcingulate	ctx-lh-rostralmiddlefrontal	ctx-lh-superiorfrontal	ctx-lh-superiorparietal	ctx-lh-superiortemporal	ctx-lh-supramarginal	ctx-lh-frontalpole	ctx-lh-temporalpole	ctx-lh-transversetemporal	ctx-lh-insula	ctx-rh-bankssts	ctx-rh-caudalanteriorcingulate	ctx-rh-caudalmiddlefrontal	ctx-rh-cuneus	ctx-rh-entorhinal	ctx-rh-fusiform	ctx-rh-inferiorparietal	ctx-rh-inferiortemporal	ctx-rh-isthmuscingulate	ctx-rh-lateraloccipital	ctx-rh-lateralorbitofrontal	ctx-rh-lingual	ctx-rh-medialorbitofrontal	ctx-rh-middletemporal	ctx-rh-parahippocampal	ctx-rh-paracentral	ctx-rh-parsopercularis	ctx-rh-parsorbitalis	ctx-rh-parstriangularis	ctx-rh-pericalcarine	ctx-rh-postcentral	ctx-rh-posteriorcingulate	ctx-rh-precentral	ctx-rh-precuneus	ctx-rh-rostralanteriorcingulate	ctx-rh-rostralmiddlefrontal	ctx-rh-superiorfrontal	ctx-rh-superiorparietal	ctx-rh-superiortemporal	ctx-rh-supramarginal	ctx-rh-frontalpole	ctx-rh-temporalpole	ctx-rh-transversetemporal	ctx-rh-insula
0	30	356.08660888671875	575.6881103515625	1081.582763671875	1382.465087890625	1568.8785400390625	1805.50439453125	504.13592529296875	1014.11865234375	1336.3145751953125	1169.2576904296875	454.1070251464844	3521.442626953125	1200.655517578125	-188.57162475585938	413.9253234863281	701.058349609375	979.1307983398438	1323.0848388671875	1755.9852294921875	1409.5888671875	322.9566650390625	1443.9969482421875	1507.984130859375	3197.476806640625	1016.6653442382812	4702.05810546875	184.93382263183594	283.4355163574219	971.6805419921875	733.0131225585938	1259.0120849609375	235.06072998046875	1780.15087890625	2624.5478515625	1612.88232421875	888.7049560546875	1231.7100830078125	1010.7990112304688	1412.48828125	1114.8221435546875	872.2245483398438	1109.86083984375	2238.810546875	1801.4232177734375	2172.66015625	1279.5296630859375	1579.748779296875	1869.81298828125	2077.4326171875	1843.2276611328125	2150.9130859375	1917.0572509765625	1472.5654296875	2353.563720703125	1709.2607421875	1544.7095947265625	2605.873046875	1867.497314453125	1508.1868896484375	980.9906005859375	1847.3707275390625	1892.6756591796875	1097.167724609375	640.2891845703125	3459.959716796875	2021.1375732421875	795.1622314453125	1828.256591796875	1155.7379150390625	1522.4896240234375	2375.329345703125	901.4906616210938	1011.6177978515625	1045.534423828125	1667.4857177734375	911.3395385742188	2078.432861328125	1377.1334228515625	1573.5777587890625	1060.1119384765625	1268.8974609375	1381.535888671875	1722.00341796875	1265.1533203125	1460.3121337890625	2225.96728515625	1289.07568359375	1219.8262939453125	1273.6719970703125	1181.662841796875	2098.14892578125	1457.7811279296875	1652.2486572265625	776.8955078125	1598.4197998046875	1547.9073486328125	951.263916015625	1039.0079345703125	3182.810546875	2163.212158203125
30	60	3316.747314453125	5536.21875	12583.087890625	13910.75390625	16869.513671875	20336.228515625	5527.216796875	8381.2333984375	10681.8720703125	11066.9560546875	5138.1904296875	15499.8349609375	9947.2236328125	32486.109375	3456.876953125	6715.31201171875	12318.8759765625	13498.4921875	15037.5068359375	17685.20703125	8202.775390625	10854.4619140625	7549.27294921875	14905.568359375	9271.1865234375	20914.94140625	1509.5462646484375	2474.1845703125	10192.9072265625	8938.9130859375	8265.16796875	2424.14501953125	17438.8046875	20558.08203125	21144.693359375	17731.365234375	7489.3232421875	12411.544921875	14466.630859375	15088.3134765625	15097.498046875	14083.05859375	19154.0078125	16659.119140625	17970.216796875	13550.763671875	12666.0	13233.525390625	19407.263671875	17813.65234375	20085.443359375	20271.201171875	16125.775390625	17321.294921875	19026.185546875	16427.044921875	13794.38671875	19795.72265625	17835.615234375	14448.8310546875	15460.0234375	17654.77734375	20609.568359375	10580.8203125	25276.080078125	16627.556640625	14751.646484375	19062.892578125	16148.4951171875	16189.373046875	15805.833984375	11467.5029296875	14361.3359375	14064.1572265625	17265.640625	12023.6904296875	19629.23046875	16799.640625	16449.74609375	12994.9423828125	9594.349609375	16492.234375	16949.3515625	17261.271484375	17319.451171875	24463.294921875	16690.37890625	20175.880859375	17840.314453125	17960.00390625	16812.892578125	17640.83984375	18508.86328125	12503.84765625	13952.6552734375	15950.5791015625	18771.96484375	12965.69140625	22912.28125	15592.69140625
60	90	7672.6357421875	13816.1689453125	28738.3046875	29555.994140625	38749.98046875	40017.1171875	19040.783203125	17922.787109375	25811.748046875	20585.458984375	8462.6279296875	27313.67578125	22382.470703125	60367.41015625	7631.79443359375	13750.142578125	28094.3359375	31551.630859375	35207.0390625	40944.25	16175.5517578125	22450.521484375	21721.734375	36891.828125	20799.88671875	45266.046875	3182.922607421875	5245.52587890625	28220.732421875	20553.345703125	13404.8349609375	5422.65185546875	39218.25390625	38330.6328125	48099.62109375	42577.57421875	25555.0859375	27971.080078125	35677.4609375	33705.9375	34636.72265625	32763.3125	45686.34765625	39175.1328125	41600.12890625	31855.7421875	23374.251953125	38100.359375	42251.0625	41348.49609375	45729.171875	49796.9296875	39266.37890625	42393.62890625	42409.41796875	38735.26171875	31794.2109375	45740.390625	42093.0859375	34397.91015625	35744.00390625	39796.83203125	44744.7890625	22691.345703125	57024.08203125	35543.0234375	34393.07421875	40613.8515625	39105.33203125	44048.984375	33017.953125	26485.234375	33738.59765625	31725.87109375	35663.2265625	32551.37890625	42775.53125	40967.0703125	40597.859375	30435.73828125	25544.080078125	38125.43359375	39704.05859375	41815.515625	44580.5625	55160.421875	37713.96875	43780.10546875	41234.22265625	40747.61328125	38830.07421875	43997.24609375	42962.9921875	34839.234375	34100.484375	37513.2890625	43717.5234375	25375.0390625	61965.0703125	31406.736328125
90	120	11886.3974609375	22623.908203125	46687.97265625	48956.52734375	64344.33203125	65356.98046875	29024.529296875	27300.353515625	36062.9375	28992.96484375	10803.7265625	55867.39453125	33334.87109375	100192.265625	11956.6025390625	21375.484375	46079.00390625	50892.34375	61980.6015625	64770.17578125	30490.4765625	35615.45703125	31011.587890625	44326.8125	34382.34375	65810.4453125	5026.9423828125	7795.1748046875	48265.33203125	33647.8359375	16985.5078125	8363.3671875	63461.79296875	61897.8046875	75967.0234375	67161.78125	35031.015625	47481.671875	58566.9140625	55624.99609375	58193.50390625	55909.4921875	70604.5078125	64086.703125	70126.5859375	51978.62890625	44503.734375	60631.48046875	66359.0625	71831.28125	74088.8515625	79497.1484375	65060.765625	62043.14453125	70857.203125	66863.859375	50359.54296875	76136.96875	70201.171875	60210.06640625	57045.3359375	66239.859375	71810.640625	39555.921875	85073.25	50881.6640625	59249.8203125	68090.140625	64999.0	74411.6484375	45030.6484375	44103.05859375	57107.7734375	53343.1875	56526.09765625	54765.41796875	66905.8125	63420.46875	60946.34765625	51045.68359375	43476.55078125	64472.7265625	66080.1875	70193.65625	70613.3203125	93782.5234375	64619.81640625	71276.0625	68718.875	64984.30859375	61760.87890625	73065.9140625	69112.7265625	57538.55859375	55180.91796875	63281.5390625	73955.7890625	37700.4296875	91420.734375	48117.5234375
120	150	13991.982421875	25380.92578125	56727.19140625	59062.73828125	76485.8203125	79583.2578125	37789.93359375	32954.9140625	45972.26953125	37938.96484375	11756.1982421875	54975.3125	40693.7578125	105235.40625	13936.4970703125	25781.154296875	55133.484375	57507.40625	73645.2265625	75561.5	36820.328125	41532.5078125	39034.64453125	70226.9140625	42668.8984375	81619.2265625	6074.6748046875	9213.2998046875	52767.94140625	42301.66015625	13058.65234375	10132.8876953125	76852.828125	72431.109375	94818.8359375	79202.6953125	46130.6328125	59576.0625	71720.265625	67544.5625	65420.4453125	69807.7734375	81280.09375	75908.71875	77055.53125	66073.0859375	42906.28125	75506.34375	81201.5625	88504.7734375	87157.0703125	100848.2265625	82456.2109375	74396.9609375	85749.84375	81243.375	62589.28125	92470.1953125	82909.140625	76647.875	68087.2734375	80278.8125	90746.109375	50633.3984375	93246.5703125	61929.375	74346.203125	72654.890625	80166.7265625	86339.6796875	51353.48828125	56050.6875	71571.1328125	64481.875	69721.140625	69563.3671875	79431.3203125	76114.03125	74686.0703125	62309.08203125	48206.46484375	77845.6796875	78397.15625	85256.4921875	89055.078125	115617.0703125	81459.2265625	86461.640625	83416.7890625	77493.40625	65756.7734375	88101.5390625	83150.171875	74114.8125	66286.5	73459.7890625	85368.578125	42962.609375	100563.2890625	55085.39453125
150	180	14820.9296875	27290.533203125	57951.5078125	61557.04296875	79454.2109375	82105.8515625	37638.390625	33361.45703125	45440.52734375	41771.125	7318.15380859375	69966.2734375	39876.5234375	90118.1328125	14501.96875	26788.0625	56171.4765625	61016.21875	76391.4453125	81144.3984375	31728.23828125	41467.62109375	41249.390625	54235.84375	42448.55078125	80618.015625	5734.705078125	9055.5341796875	53189.734375	42582.16796875	9935.6982421875	10457.94140625	79618.296875	69759.015625	99965.671875	85998.7890625	45162.5859375	58878.2109375	73546.625	72906.671875	66751.5390625	73842.953125	84279.0859375	78899.7890625	81453.640625	67437.25	52208.16796875	81174.84375	81735.4375	84012.5078125	88422.15625	99492.921875	85434.375	74576.7734375	88914.2890625	82470.96875	65296.90234375	94172.2421875	85657.9921875	80022.7109375	68949.5625	81483.890625	83597.40625	52254.51171875	94380.421875	61459.609375	73250.953125	73871.2578125	83129.0703125	88064.265625	53749.74609375	56637.89453125	73088.234375	66296.1875	70390.4296875	73484.5546875	80797.484375	77460.7578125	81016.5625	64759.5	48479.2421875	80120.0703125	80861.7890625	87940.28125	89113.953125	113818.8046875	84995.4140625	83431.6484375	84660.9375	81836.484375	66980.8203125	92638.7265625	87375.234375	79433.71875	68881.65625	78300.5703125	94698.9375	48601.94140625	97046.8515625	58389.43359375
180	240	15204.7109375	27705.57421875	55879.08984375	60421.859375	74011.3984375	79333.0	35061.41796875	33986.51171875	43434.1328125	43749.32421875	7408.97705078125	62119.515625	40973.87109375	88282.1796875	14818.1318359375	27030.419921875	55126.4140625	58191.4140625	75620.4921875	78761.5546875	34126.26171875	43296.90625	43731.08984375	52689.1484375	41904.25390625	66170.265625	5115.5966796875	9207.955078125	56680.8515625	41898.78125	8304.216796875	10480.1591796875	76984.8828125	68574.9296875	92324.5625	85475.9921875	43594.7734375	58981.8125	73413.5703125	70429.3671875	62390.078125	70516.640625	78525.2109375	75144.34375	74759.6484375	65194.62109375	54233.32421875	75695.9140625	78407.9140625	79531.015625	85540.265625	94858.25	85317.234375	75165.5703125	84061.390625	79082.7109375	63970.48046875	89422.71875	82051.2890625	78803.3984375	68490.953125	78523.3828125	88504.546875	52325.29296875	84416.078125	61396.265625	67344.5546875	72347.203125	79071.640625	84623.9296875	47338.29296875	56871.54296875	73918.8671875	65599.4375	66259.90625	72288.625	73656.9765625	74552.8125	76114.125	65085.56640625	50117.01171875	77530.8203125	76451.4453125	82420.6796875	87082.0078125	111178.46875	83849.2890625	81119.78125	82194.5234375	78953.8046875	62530.7734375	89697.9765625	83366.421875	76705.6875	65934.390625	76164.09375	89231.8125	50458.578125	90394.0234375	56872.4453125
240	300	15572.6708984375	26350.962890625	52204.0390625	55864.31640625	69485.1640625	72532.4609375	36571.14453125	33094.59375	39172.4296875	42492.2734375	4768.357421875	57904.82421875	40436.7109375	68137.7265625	15057.3525390625	26343.662109375	51825.859375	55411.26953125	69935.1015625	72047.765625	37556.44140625	37983.4765625	47130.17578125	49055.6328125	40997.609375	60789.04296875	5010.86328125	9125.5244140625	47368.23828125	40072.62890625	5986.95556640625	10611.15625	69618.4375	65635.46875	83516.7578125	77969.203125	42466.5703125	57987.671875	67221.65625	64159.5078125	62392.4765625	65540.125	71841.5859375	65210.21875	70320.0390625	61433.86328125	48805.2109375	70607.828125	70025.125	71246.25	76009.15625	85316.234375	76693.78125	66569.734375	76368.71875	71456.09375	59916.046875	82036.9375	75036.25	74376.3046875	64171.43359375	71443.71875	81171.40625	49337.7578125	73571.71875	55848.86328125	65255.03515625	67286.1796875	72939.2734375	80279.8359375	48165.6640625	54040.21484375	68891.953125	62991.6484375	61406.46875	67403.234375	70650.515625	68464.3984375	68555.1796875	61331.6171875	48728.9921875	73662.3359375	71210.9609375	76939.4921875	78268.328125	97502.4609375	77859.875	71328.3984375	75004.6796875	73875.34375	60781.046875	81620.296875	75998.9375	72845.1015625	62117.58203125	70672.84375	82977.15625	47049.91015625	76853.7265625	51933.3203125
300	360	15652.3056640625	26111.443359375	47781.08203125	53920.15234375	63072.01171875	64680.578125	36628.94140625	30015.541015625	37647.7578125	43424.31640625	5318.1162109375	48067.53515625	38947.45703125	43237.15625	15251.59765625	25849.86328125	46864.7265625	52504.83203125	61040.66796875	62383.1875	34870.5703125	36556.03125	43920.73046875	51390.25	39392.94140625	39622.15234375	4276.43994140625	9186.0830078125	41969.35546875	38116.6953125	4709.42236328125	10578.9052734375	63993.984375	52244.046875	72430.484375	65168.16015625	41015.18359375	52837.48828125	61388.37890625	59213.89453125	53890.9765625	60379.21484375	65523.578125	61122.38671875	64023.9375	57224.2265625	46346.73828125	66172.3046875	61874.640625	64742.11328125	69963.265625	72327.4296875	68595.5546875	57702.17578125	68636.96875	64403.83984375	55542.24609375	72890.4375	67914.15625	67169.40625	58899.30078125	63925.421875	72803.65625	47771.61328125	65971.546875	51404.35546875	59545.32421875	63512.1328125	64469.73828125	72684.4296875	41240.3203125	49514.66796875	62060.24609375	58027.1796875	54220.13671875	62570.53515625	63015.65234375	62236.2578125	59778.8359375	55953.43359375	44529.328125	63654.296875	64345.57421875	65331.57421875	70912.53125	83243.109375	67157.2109375	66609.515625	66275.6953125	65686.5625	54989.2421875	73590.8203125	68146.46875	66180.8359375	56625.6328125	63782.59375	75121.890625	44366.87890625	69857.9375	49589.6015625
360	480	15870.607421875	25345.525390625	40548.8359375	47034.55078125	51598.10546875	54790.01171875	32651.1484375	29597.91796875	33705.890625	39917.09375	3329.8955078125	46015.33203125	36788.421875	27316.578125	15413.5693359375	25010.947265625	40327.390625	46042.46875	51646.6328125	54209.171875	33406.86328125	34411.3046875	40938.5703125	45471.55859375	35729.65234375	39819.55078125	3868.588623046875	9054.8388671875	36504.171875	34014.27734375	3613.38818359375	10479.1533203125	54735.37890625	48778.7734375	62087.515625	57892.30859375	38459.68359375	45896.93359375	52409.35546875	53054.9296875	47387.55078125	50096.546875	54589.43359375	51136.453125	55514.2578125	49261.921875	41315.57421875	55630.1953125	52552.67578125	53564.15234375	58147.77734375	59258.5703125	58031.29296875	50759.97265625	56439.53125	53810.953125	47413.32421875	61226.73828125	56634.80859375	57611.390625	50158.60546875	54663.28515625	60928.31640625	45466.46484375	53209.75390625	47215.4140625	50679.640625	51411.98046875	55296.0546875	62853.84765625	42576.3515625	45601.90625	53644.87109375	50638.625	46745.94921875	53134.3046875	53554.9921875	53168.65234375	53189.18359375	49320.26953125	39884.91015625	53597.7890625	52989.2421875	57983.31640625	59883.59765625	67243.2421875	58943.88671875	55793.38671875	55994.71875	54920.92578125	46999.33203125	62218.82421875	57240.29296875	56465.02734375	49671.81640625	54809.93359375	61229.79296875	41066.1953125	56068.80078125	42181.4140625
480	600	16007.71484375	23922.541015625	33804.265625	40963.46875	43249.86328125	44291.79296875	34215.05078125	26223.904296875	28237.68359375	39145.96875	1254.1400146484375	41710.80078125	33525.2578125	30475.16015625	15525.6318359375	23160.529296875	33442.36328125	40404.9765625	42663.04296875	43194.65625	31658.302734375	28481.97265625	39453.19140625	40714.4921875	33043.94921875	27565.001953125	3358.339111328125	9025.68359375	31168.916015625	30424.73046875	2577.287353515625	10446.4931640625	44405.9453125	39798.1640625	48376.31640625	46984.5546875	35294.59375	40266.54296875	42621.515625	44445.75	37475.265625	41650.16015625	43956.05078125	41141.71875	45520.4296875	41189.89453125	38219.70703125	44073.77734375	41973.60546875	43055.19140625	46935.06640625	44227.09375	46289.0390625	40867.328125	46144.6796875	43425.70703125	39561.671875	49202.73046875	45822.91796875	47530.85546875	42549.453125	44091.796875	46958.9921875	39749.81640625	42261.10546875	40742.375	39997.59765625	45508.31640625	43783.5546875	48742.27734375	36425.5546875	38081.37890625	43763.109375	43135.59375	39890.5625	43521.32421875	43700.2578125	43432.0078125	45420.3046875	41482.2890625	36465.1875	45263.91796875	42733.08984375	46452.3984375	48838.48828125	52592.28515625	47143.9296875	42797.984375	46104.19140625	44340.3203125	38503.41796875	50246.8046875	46990.3359375	47295.25	41832.85546875	43983.23828125	48975.9453125	38746.97265625	44148.8515625	37746.5625
600	900	16305.203125	22596.271484375	25615.80078125	32862.40625	31014.125	33524.21875	30051.6640625	22606.966796875	23116.96484375	29679.078125	429.5886535644531	31376.87109375	29793.67578125	19935.060546875	15651.076171875	22219.103515625	25568.15234375	31876.62109375	30798.3828125	32615.80859375	30608.228515625	22353.58203125	32990.05078125	30391.244140625	29637.509765625	27043.25	3064.372314453125	8748.52734375	23071.88671875	26602.69921875	2155.966552734375	10751.9013671875	33833.63671875	31024.484375	36235.79296875	36656.671875	33541.15234375	31922.60546875	32573.376953125	35344.06640625	30034.7890625	31778.08984375	34360.32421875	31374.056640625	35606.828125	31884.630859375	31085.125	33881.62890625	31814.359375	34920.66796875	35212.734375	32339.673828125	34855.58984375	31256.4921875	34716.55078125	32324.87890625	29965.916015625	37018.0625	35076.4609375	35431.8984375	32863.46484375	33497.21484375	36416.15625	34433.25	31999.033203125	33496.4453125	32193.837890625	34306.28125	34037.0546875	39119.61328125	30502.828125	30275.974609375	33773.94921875	34570.4453125	30616.8359375	33638.98046875	33514.3203125	32814.2734375	34273.390625	32807.34375	30767.642578125	33814.18359375	33432.234375	37705.23828125	37197.1328125	37067.5390625	36331.859375	34116.8046875	34991.62890625	33661.7265625	30657.701171875	38870.8671875	35188.50390625	35987.09375	32293.4140625	33736.890625	38484.80859375	31778.376953125	31136.798828125	30681.37890625
900	1200	16431.42578125	21361.966796875	19122.1875	25108.861328125	21738.521484375	24349.55078125	27250.017578125	18891.91015625	18188.66015625	25874.37109375	251.42498779296875	20349.169921875	25754.80078125	19461.421875	15781.4111328125	19860.251953125	19216.78515625	24739.341796875	21980.68359375	23305.033203125	26065.951171875	17910.5	26937.3828125	23301.650390625	25898.80078125	23639.021484375	2745.189208984375	8992.4873046875	18616.232421875	22854.412109375	1801.287841796875	11253.576171875	26436.60546875	25159.16015625	27916.876953125	27498.48828125	27159.3203125	26028.392578125	24996.138671875	28346.8046875	24596.01171875	24698.94140625	26859.13671875	25703.515625	27808.73828125	24469.591796875	24454.955078125	24864.86328125	24599.412109375	26782.62890625	26561.041015625	23552.630859375	25964.767578125	25032.978515625	25851.7890625	25548.580078125	24594.630859375	28030.001953125	25985.94140625	27107.8671875	25103.091796875	25840.275390625	27479.0859375	28485.681640625	25978.033203125	26996.98046875	24204.00390625	26868.97265625	25758.232421875	30974.248046875	24574.75	24630.875	25941.375	27814.79296875	24628.48828125	26209.466796875	26482.78125	26182.68359375	26016.634765625	25071.140625	24014.8125	25713.927734375	26289.107421875	28562.052734375	29057.619140625	28177.494140625	27587.677734375	26863.69140625	26491.005859375	26290.1875	24013.740234375	29551.880859375	26824.88671875	27143.857421875	25291.455078125	26006.333984375	29791.8515625	25055.77734375	25406.23828125	23713.771484375
1200	1500	16024.111328125	19729.3359375	15385.818359375	20710.109375	16365.8974609375	20100.875	22587.380859375	16220.638671875	14457.328125	21372.48046875	440.1383972167969	15588.03125	22163.275390625	23621.380859375	15558.4169921875	18916.12109375	15782.6328125	20682.32421875	17365.203125	19269.10546875	23277.7734375	14947.861328125	21842.173828125	13866.4638671875	21811.740234375	21368.44140625	2655.800537109375	9036.798828125	14838.2685546875	20423.640625	1944.6732177734375	11585.111328125	23269.48046875	20316.9453125	23249.14453125	22631.701171875	23452.603515625	22686.927734375	21097.8671875	24283.568359375	21511.580078125	20710.6953125	22284.826171875	21190.849609375	23927.32421875	20480.009765625	19507.130859375	21040.7109375	21450.103515625	23413.61328125	22467.77734375	21954.744140625	21830.845703125	21401.552734375	21668.4296875	21721.99609375	21817.2890625	23690.0078125	21696.4453125	23046.5546875	21191.984375	21594.576171875	22406.41796875	24440.2421875	22129.119140625	23712.8828125	20610.576171875	23782.330078125	21660.29296875	25785.990234375	22408.0	21056.044921875	21996.578125	23771.365234375	21903.7421875	21590.63671875	22492.07421875	22987.044921875	23076.484375	20742.048828125	18973.431640625	19988.390625	22117.03515625	24604.076171875	24534.703125	23664.736328125	23483.6328125	23121.314453125	21963.8125	21822.7421875	19080.69140625	24740.75	22306.779296875	22554.853515625	21548.7265625	22085.0859375	25237.50390625	20557.1015625	22897.787109375	20724.16796875
1500	1800	15664.1591796875	18377.517578125	13082.2353515625	17458.892578125	13492.0166015625	16650.6640625	19865.107421875	14280.41796875	12256.083984375	18539.693359375	1334.836181640625	10357.359375	19870.02734375	22277.701171875	15247.935546875	17859.826171875	13017.4638671875	17196.302734375	14434.8193359375	16236.87109375	19844.607421875	12633.90234375	19813.501953125	12680.53125	19111.736328125	12346.0517578125	2460.07080078125	8997.1015625	12843.0234375	18215.435546875	2157.809326171875	11758.345703125	19960.634765625	17579.974609375	20603.462890625	20632.0	20233.6171875	19643.734375	18413.833984375	21495.1953125	18945.705078125	17571.892578125	19507.802734375	19597.89453125	21848.0859375	17295.841796875	16707.44140625	17811.84375	18996.478515625	20867.25	19843.203125	19763.30078125	18877.44921875	17627.458984375	18337.486328125	19330.947265625	17495.728515625	20744.98828125	18290.724609375	20093.96484375	18074.205078125	18796.109375	18364.0078125	21026.728515625	20911.232421875	19917.927734375	19035.052734375	20745.97265625	19347.6328125	22036.412109375	17661.28515625	18974.8515625	19722.548828125	20578.47265625	19662.03515625	19416.359375	18648.478515625	20525.62890625	19164.048828125	17956.841796875	17565.6796875	17925.28125	19233.73828125	20995.3046875	20349.09765625	20763.751953125	21122.841796875	19596.537109375	18663.966796875	18752.76953125	17709.64453125	21197.470703125	19214.7890625	19716.048828125	18829.955078125	19300.134765625	22159.58203125	17271.21484375	17981.35546875	18028.794921875
1800	2100	14970.2001953125	17165.869140625	10966.427734375	14895.2685546875	11183.8798828125	14283.3720703125	17764.69140625	11911.712890625	11424.2431640625	15037.123046875	1126.091064453125	5575.43359375	17400.380859375	15484.822265625	14615.501953125	16377.6748046875	11234.78515625	14863.15625	11969.423828125	13295.572265625	18012.1484375	10460.38671875	15318.1455078125	9608.00390625	17045.44921875	13606.5263671875	2334.037353515625	8913.76171875	12076.650390625	16511.98046875	2366.552734375	11803.22265625	17010.296875	16281.251953125	17825.435546875	19263.154296875	17804.1328125	18041.623046875	16395.703125	19185.9765625	16904.103515625	15769.6826171875	17539.6015625	17761.181640625	18214.017578125	15624.365234375	15674.6552734375	14107.2041015625	16553.314453125	18090.220703125	16887.427734375	17552.544921875	16781.818359375	17506.642578125	16192.4541015625	17714.193359375	16569.55859375	18256.232421875	16048.6171875	17501.73828125	15479.486328125	16867.076171875	17445.466796875	18259.666015625	17352.0	18129.9140625	17307.6796875	17390.58984375	16589.373046875	18642.599609375	16997.6953125	17051.751953125	17002.267578125	18897.435546875	17406.7421875	17497.947265625	16454.6484375	18936.2890625	17829.8203125	15827.8095703125	14657.5517578125	15869.8125	17641.609375	19672.294921875	17873.44140625	18504.751953125	17910.69140625	15867.09375	16741.005859375	16394.818359375	15437.01953125	18623.966796875	17063.716796875	17230.419921875	16582.501953125	17270.078125	18566.5859375	16460.88671875	17045.666015625	16246.4814453125
2100	2400	14196.71875	15370.0517578125	9704.8603515625	12611.6552734375	9861.681640625	12390.8330078125	15477.3583984375	10947.703125	9801.5458984375	12597.591796875	1984.144287109375	4380.71630859375	15668.5927734375	21320.654296875	13847.966796875	15278.1337890625	9803.3466796875	13256.603515625	10147.0712890625	11653.8857421875	13840.24609375	10502.265625	12827.7001953125	6938.49853515625	14714.6513671875	11649.48046875	2248.177001953125	8813.306640625	11049.138671875	14411.3544921875	2372.67822265625	11750.7158203125	16124.6650390625	13111.4150390625	16315.140625	17457.841796875	15209.4296875	17006.998046875	14923.0341796875	16526.0546875	15671.7490234375	14669.5537109375	15904.0546875	16867.45703125	16283.7548828125	13587.083984375	13043.896484375	13034.2587890625	15489.6005859375	16708.978515625	15725.5361328125	15623.5146484375	14846.3916015625	15709.890625	14203.302734375	15355.806640625	13257.4228515625	15965.23046875	14639.4677734375	15907.2880859375	14248.0576171875	14877.560546875	14812.4052734375	14814.5634765625	15634.16796875	16073.9765625	15276.7861328125	16831.416015625	15581.1552734375	17974.869140625	14614.26953125	15769.0078125	15023.8671875	17099.52734375	14048.4248046875	16213.2138671875	14627.984375	17167.951171875	16975.171875	13811.1943359375	13687.01171875	13842.4501953125	15095.041015625	17257.28515625	16749.404296875	16212.1328125	16308.2021484375	14435.62109375	14516.009765625	15640.00390625	14742.5732421875	16948.296875	14766.484375	15794.259765625	14501.931640625	15775.4599609375	18646.97265625	13985.4345703125	17228.435546875	15361.236328125
2400	2700	13438.1142578125	14297.375	8482.12890625	11001.9501953125	8690.654296875	10099.0712890625	14004.3515625	9248.1064453125	9440.259765625	10553.3623046875	1521.400146484375	2253.50439453125	14102.9716796875	16861.810546875	13016.0712890625	13912.939453125	8769.259765625	10980.1181640625	9385.7763671875	10055.3076171875	12777.939453125	8489.1533203125	11494.1171875	6337.07470703125	13315.4765625	15542.6669921875	2155.6220703125	8579.05859375	9082.5986328125	13437.3271484375	2424.77294921875	11615.388671875	14523.3828125	14415.29296875	14104.2744140625	15524.5751953125	13970.9375	15532.591796875	13305.9130859375	16239.984375	13347.28125	13809.787109375	14759.9833984375	16027.025390625	15421.96484375	12355.9794921875	12424.978515625	12163.38671875	13458.623046875	14562.9208984375	14519.8095703125	15021.369140625	13642.3671875	12812.4560546875	13127.0048828125	14847.203125	12354.7978515625	14448.494140625	12806.0888671875	14785.884765625	13097.306640625	13831.9423828125	13930.41796875	15416.16796875	15729.6943359375	15027.7197265625	14188.212890625	13255.404296875	13430.2353515625	16407.408203125	13241.5283203125	16084.6884765625	14204.4052734375	16140.66796875	15395.25390625	14935.07421875	13711.1953125	15378.6455078125	14924.8671875	13203.6376953125	11185.962890625	11537.7431640625	14980.6162109375	17162.875	15738.26953125	16442.384765625	15436.0341796875	14680.5078125	13440.896484375	13280.3515625	14543.35546875	15620.7626953125	13475.619140625	14417.5048828125	13818.3681640625	14359.625	15889.677734375	12894.1796875	14178.94140625	13196.056640625
