frame_start	frame_end	parasubiculum	HATA	fimbria	hippocampal_fissure	HP_tail	presubiculum-head	presubiculum-body	subiculum-head	subiculum-body	CA1-head	CA1-body	CA3-head	CA3-body	CA4-head	CA4-body	GC-ML-DG-head	GC-ML-DG-body	molecular_layer_HP-head	molecular_layer_HP-body	Lateral-nucleus	Basal-nucleus	Central-nucleus	Medial-nucleus	Cortical-nucleus	Accessory-Basal-nucleus	Corticoamygdaloid-transitio	Anterior-amygdaloid-area-AAA	Paralaminar-nucleus
0	30	22.8317	190.9417	25.55003	42.4139	21.43152	29.05093	35.39708	57.29398	30.56675	47.70487	30.39046	68.22115	22.81039	89.63177	31.33729	75.855	32.05825	59.99945	29.09531	92.10105	83.69605	88.34601	53.15342	45.80772	70.94721	63.28978	85.86869	20.13247
30	60	4393.49437	2700.46917	3422.52489	3671.16846	2945.65735	3496.17316	4694.63868	2827.14126	3220.74767	2939.05072	2245.74831	3590.42281	2935.06203	3412.87109	3072.59651	3357.56501	2942.74878	3090.0007	2999.64836	2564.64838	2790.60627	2026.14791	2185.84637	2171.11852	2512.98164	2744.72383	4528.41364	2712.97192
60	90	13066.87331	9205.76452	11303.37862	11349.24615	11644.00849	12660.44416	11337.80703	9858.65029	9794.38909	11539.55939	7901.23323	14088.40073	9820.59327	12590.92968	9978.28959	12481.19128	9809.04591	12183.52353	9559.72028	9007.31613	11178.82035	8977.47711	8318.86757	7425.76263	9635.34523	9835.53838	13787.11953	10550.61806
90	120	21206.15211	15554.03537	20934.87693	20924.67726	22039.178	20968.67059	18767.42413	20729.31176	20111.11309	20231.26871	14900.34067	21573.92822	18941.4422	23297.45984	20719.94419	22274.824	20101.91367	22217.49037	18857.31533	16896.77722	17542.42855	17637.69893	15017.10634	14017.57056	15512.64802	14793.40311	20210.99468	20154.9939
120	150	25854.2037	24407.69209	31107.11328	30662.82527	30012.52625	29304.69606	29841.06066	28561.23054	29852.32216	25470.54561	24072.78445	29944.97095	26726.50328	30102.45192	31099.06899	28656.73099	30697.90814	29179.95352	28761.34435	25867.60792	26577.52328	25591.29586	26570.37565	26320.21259	27442.87902	24821.74291	28856.86182	24353.24054
150	180	24264.52041	24750.05803	30410.48228	30374.41923	31656.03852	29349.62213	30270.53295	30114.25189	28675.10535	30125.63803	24959.93494	30901.18115	29198.33612	31502.14894	30768.19456	31200.41966	30728.12448	31909.30254	29756.37518	30346.00641	31597.82947	34976.0907	29776.77474	28839.65662	29117.13255	24845.83449	28827.67241	31550.36437
180	240	24796.99462	26240.95666	31489.42175	29508.00955	30266.17162	28505.21846	26665.09515	29922.97214	30969.80991	28576.65695	25891.8203	29014.4409	29370.53703	29528.92938	32971.34085	28950.37776	32218.18076	30453.38291	30075.76526	28797.57533	29280.94631	27987.75652	25632.55078	25911.8811	29923.67488	25734.44467	28005.24863	27496.31814
240	300	22131.63356	22872.26537	26904.49137	26867.11635	27179.48522	26332.83957	26704.57131	29308.65651	28168.49679	27540.57679	23526.02664	28587.85727	27183.48697	30822.43932	28502.10557	28542.28666	28123.27921	29521.97261	27322.0157	29070.84572	28776.54907	26576.03691	24644.81402	24630.23755	27385.70919	23326.39068	24950.73726	28650.97841
300	360	21081.16954	22033.81321	25570.39106	27159.03735	26802.95419	26804.32811	25552.88223	28056.95424	28411.95577	25549.79208	23094.03516	24225.62031	24426.55817	27653.9495	27471.61307	27183.40754	27668.68297	27417.10252	26470.92653	27359.02066	25846.87714	23221.42859	22579.93229	22319.21069	23934.38006	21994.09322	28345.8394	25134.6722
360	480	18013.87179	20239.9088	24522.00815	24191.31738	23198.58561	23985.07436	23060.70186	27181.71734	24733.50262	24535.39182	20848.51155	24195.84117	22684.32828	26679.98567	24621.53764	25337.99262	24639.03844	26460.28725	23650.4795	25733.27318	25832.98563	25419.83344	21518.46354	20777.68884	24578.14434	20594.34561	25052.41724	23680.9352
480	600	17185.45478	19240.5166	21658.89562	21816.67385	20812.56514	22134.10178	20949.10612	24725.20694	23290.71164	22628.69351	18439.46267	20609.23613	20428.85228	23583.40902	21879.4796	22778.28923	22024.96921	24182.66025	21190.04607	24722.85795	24726.97699	23069.01305	21432.80035	20585.98334	22529.46232	19625.96879	22550.99209	23668.45974
600	900	16022.16065	17196.45719	19460.71053	19794.51035	17655.17111	20044.66506	17963.88714	21919.80496	19661.46613	19697.53082	17343.52703	19165.57324	18787.58408	21346.28535	20042.92118	20560.35784	19782.47285	21172.62363	18953.41545	22484.03211	21790.61072	20138.95859	19614.48524	19441.91589	20336.45009	18028.63704	21249.23882	20093.80048
900	1200	13775.06543	14981.85959	16372.92556	15971.38236	15320.27593	16444.27586	15470.87832	17987.16064	16119.45122	16538.50127	15006.09387	15610.52506	15744.5565	16830.51583	16160.05742	16610.24297	16100.32412	17244.69655	15770.15645	19145.67748	17420.98029	17527.43725	17709.41862	17879.51624	17265.58744	15482.98377	15720.36213	15922.8883
1200	1500	10830.71029	14117.43889	14387.92549	13526.85512	12993.85967	13936.67647	13534.19323	15633.75297	14670.60794	14043.42436	12966.8008	12572.16669	13604.67129	13518.09914	14264.41691	13491.52568	14369.45212	14312.01723	13822.72286	16315.65973	14356.39263	15579.33227	15795.04449	15523.57697	14956.83404	14945.14186	12488.93916	14835.40441
1500	1800	10532.67964	12894.16849	12446.79368	11618.88316	10713.30027	11820.90479	12564.66735	12501.24213	12283.91747	12661.65835	11122.89139	11938.3905	12137.01051	11434.27763	11772.41089	11583.43343	11793.64789	12427.80555	11701.96557	14328.63447	13196.60135	15169.66014	14931.98296	14365.80621	13575.35094	12664.04409	11409.84668	12580.05165
1800	2100	9293.86182	11180.16195	11306.82692	10366.73096	9750.7582	10573.00765	9719.28061	11020.94306	10673.39558	10834.26499	10768.71053	11627.04198	11667.67557	10867.99137	10899.36586	10750.16005	10857.01727	10831.04407	10810.86976	12601.10336	11289.36516	12210.14791	13288.87652	13668.55734	11835.30174	11062.05514	10888.15024	10376.96607
2100	2400	8245.02791	9219.95264	10034.8	8635.48458	8465.06683	8793.89846	9133.26509	9574.47155	9328.93597	9186.37012	9201.75371	9042.31593	10568.32298	8770.7299	9252.02039	8795.46217	9319.32702	9181.81891	9350.55447	10595.64125	8709.23747	11396.21203	12208.61762	12288.72275	9375.57837	8966.17575	8152.91714	8633.84958
2400	2700	8076.50895	9785.52987	8420.94378	8001.41686	8050.83937	8839.08699	7802.77575	9289.66132	7669.28412	8914.16434	8631.32805	8380.15725	9348.52405	8406.47086	7702.97089	8385.45058	7692.35259	8827.182	8074.18604	9776.27026	8414.10706	10113.42197	10035.31673	10199.88116	9027.4923	8624.76392	8291.44934	8239.24935
2700	3000	6525.90158	8526.1006	8460.8067	7126.90555	7248.35323	6812.75746	7021.11348	7196.23363	6920.84085	6993.58335	8502.18826	7595.22901	9150.19735	6553.37001	7997.1577	6619.94584	7943.22356	6780.26954	8088.77823	8406.44226	6763.37469	9210.12389	9965.31619	10115.3623	7885.26766	8251.44173	6551.98099	6324.95035
3000	3300	5887.44555	7037.02824	6960.43438	6252.31997	6500.79062	6040.95883	6165.53335	6665.99038	6829.66048	7002.86259	7437.22045	6955.39147	8117.06124	6203.07949	7147.8572	6553.04645	7085.39251	6475.29329	7089.58554	7536.49442	6055.48533	7539.17575	7647.00537	7778.91895	5938.7444	6234.84878	5980.79424	6244.25725
3300	3600	4587.75961	5928.12872	6432.29088	5561.80132	6393.44625	5298.38755	5903.55166	5471.70053	6289.47698	5308.52508	6307.22091	6621.89631	7038.22418	5205.0959	6013.96385	5224.58875	6148.66664	5245.6312	6401.50747	7335.56644	5098.24661	6873.05778	6580.58968	6580.08841	5016.4177	5002.74076	6544.29469	4618.571
3600	3900	4716.57983	5893.57635	6915.94089	5670.87834	6301.20689	5501.09131	5480.29692	5591.11439	5417.39892	6101.66842	6780.70237	6854.78044	6559.11179	5583.58284	5801.24531	5870.15296	5848.46827	5465.45042	5940.00836	6473.04776	5856.31287	5504.31684	6431.90918	6563.77303	5651.35791	5395.28266	4874.42249	5613.11017
3900	4200	3989.93232	7169.89476	6269.06257	5139.15208	5781.60362	4157.75903	4743.61143	5260.02694	6060.87919	5522.71393	5716.05016	5681.10318	6769.10983	5282.73176	6146.23042	5182.81916	5951.32944	5067.73485	5809.75509	6579.94145	5201.54386	6143.41995	6351.83713	6543.98985	5693.01546	5882.825	4428.94872	4653.96122
4200	4500	3722.07763	5511.60347	5614.88463	5138.50537	5546.66587	4551.6637	4850.14859	5533.83234	4570.19503	5437.91794	5753.47843	5374.20987	6373.94571	4969.68455	5450.24844	5110.49155	5327.98066	5205.66401	5519.93235	6128.77568	5343.06753	5217.29956	4958.83594	4848.51149	4951.03823	4604.12153	5568.20824	4493.08162
4500	4800	4080.87772	6155.45527	6837.25051	4516.4093	5142.58338	4399.40971	4608.65325	4552.27995	4739.33715	4208.72616	5206.9231	5226.57547	6923.08692	4459.1115	5743.68778	4243.27428	5565.43281	4137.00221	5484.14651	6213.17609	4268.51586	6032.48175	6391.39678	6252.24965	4835.1013	4465.57793	5092.70793	4332.96928
4800	5100	4217.8414	5016.15517	5506.47629	4979.62453	4839.75849	4585.00613	4386.21127	4740.88174	4454.49076	4817.32631	6016.03312	4966.11435	6831.67556	5340.24409	5200.28104	5143.4683	5097.05288	4761.09519	5545.78665	5564.3261	5323.47576	5832.82405	5323.89648	5690.38802	5036.16334	5389.26372	6735.7376	4475.50427
5100	5400	3730.11128	5836.35845	4334.25718	4137.14321	4731.9851	4574.36735	4142.55208	4073.55309	3158.10579	4608.8982	4554.20998	4647.03024	4148.34358	4063.16183	3292.26747	4561.7426	3452.73489	4317.78793	3837.18659	5114.73825	4785.55322	3941.78178	4783.50705	4605.31616	4446.26444	5268.87002	6794.22196	3770.49025
