frame_start	frame_end	parasubiculum	HATA	fimbria	hippocampal_fissure	HP_tail	presubiculum-head	presubiculum-body	subiculum-head	subiculum-body	CA1-head	CA1-body	CA3-head	CA3-body	CA4-head	CA4-body	GC-ML-DG-head	GC-ML-DG-body	molecular_layer_HP-head	molecular_layer_HP-body	Lateral-nucleus	Basal-nucleus	Central-nucleus	Medial-nucleus	Cortical-nucleus	Accessory-Basal-nucleus	Corticoamygdaloid-transitio	Anterior-amygdaloid-area-AAA	Paralaminar-nucleus
0	30	140.85861	17.90141	53.86707	29.59054	26.26717	114.89352	39.82822	51.38059	21.38116	25.14634	43.21794	20.64093	58.04606	12.31181	33.98441	12.89587	36.21976	47.97451	39.70462	56.6711	50.75499	24.39871	18.24832	57.23402	31.12692	39.23964	99.09635	85.29344
30	60	3955.09569	2254.2228	2821.44637	3240.57136	2514.18717	3381.82283	3535.93912	2035.56719	2513.85756	2420.85457	1902.23968	3561.38732	2293.73625	2961.59207	2490.21402	2807.11224	2506.70593	2497.25235	2618.85999	2150.63318	2359.34174	1997.61325	1556.82945	2005.1706	2246.41575	2706.99463	3633.13874	2702.42479
60	90	12406.92206	10376.77018	12059.47429	12307.17269	12182.66226	12861.38002	13325.46433	12267.99094	11455.9181	11465.86502	9497.57816	12553.24357	10504.1018	13696.0247	11374.15379	12967.50472	11314.86797	12249.65094	11367.93041	9601.66465	10818.70897	9773.1039	9465.73772	10021.98002	11510.9528	12480.92868	12617.31729	11281.75996
90	120	24881.99523	20138.81288	24988.07306	25157.33267	21985.51304	27037.95214	23898.22754	22011.66344	22508.68187	22550.03511	19645.2451	28003.27111	23025.06885	26520.49707	24173.04812	25524.45698	23573.7873	24245.64212	23060.63836	19009.13125	24092.21145	21151.65911	18891.75571	20310.2045	24301.30335	22895.51463	27532.16214	22161.45006
120	150	31927.42729	30715.42676	35310.53373	34491.89993	32943.18828	34543.07384	33132.21045	31339.90125	32123.24765	32617.8589	29154.09296	35950.43926	33244.39596	35379.35929	34519.13032	34397.22169	34051.54917	33680.61312	33029.47191	30883.78497	33399.10999	32556.10694	27769.73761	32228.5886	33023.20816	30285.97796	31157.3374	32270.34096
150	180	34703.85543	33596.75419	39933.05241	39626.70656	38009.82337	40471.91117	38005.93027	37380.93354	38744.14714	37166.15993	34305.85157	41333.20903	37941.75624	41976.18578	40955.00416	39974.98972	40326.61153	39940.0753	38939.2973	36831.49475	39073.16875	33329.58543	31417.18081	33589.39562	38454.88082	35352.50414	41982.78346	36776.08732
180	240	34631.75383	33298.62831	39775.40241	39248.33891	39123.52351	39265.60398	38945.91163	38401.60006	38603.22719	37125.65172	34162.16942	39774.4077	36996.78243	41328.15784	40286.82454	39486.51844	39854.12331	39335.39282	38379.959	37846.38844	40251.65282	35230.54163	32920.73265	34466.27532	38055.32941	34342.52974	38461.92572	39202.72263
240	300	35327.22976	33696.64546	39936.15524	40270.9265	38591.73806	40608.81107	39337.26938	38267.92318	40233.81002	37932.72795	34153.50494	40347.94379	36587.10779	42022.72382	40399.23646	39922.74585	40073.20218	40281.97263	38720.5115	40287.20377	41038.07235	37550.04259	34162.60066	34988.5628	39523.86707	35156.84542	40339.87842	39370.49306
300	360	32769.68938	32605.82773	37515.24251	37007.33099	35755.58659	38145.31034	36245.4102	38162.43142	36757.4	36676.13581	33525.74767	36847.03308	34781.50364	37918.97488	37254.78536	37385.00803	37028.09167	38371.14847	36019.96518	38484.26824	40225.53452	36249.51394	33981.17195	33842.39093	38000.12954	33905.1195	39814.86449	38070.52987
360	480	29351.80679	29888.8649	34580.59801	34775.07284	33734.85175	35144.03958	33480.14858	34641.53057	34878.08067	34035.58884	30555.24378	33107.14253	31909.83517	36916.7981	35145.81522	35627.87119	34935.63279	35899.18919	33714.15063	35441.14819	37738.17036	33683.21396	31257.69569	32645.80382	35715.5109	31700.20303	36126.60824	34786.05721
480	600	27299.02279	26174.58332	31056.31382	31237.96676	29555.20693	32133.6731	30429.82815	32156.98483	32067.95148	30093.60321	28370.16966	29824.60905	29239.81177	32098.97223	32049.96225	30957.70912	31842.88751	32142.76123	30887.17214	34175.01891	34500.05114	29779.49823	28845.41962	28254.97581	31871.50823	28075.27057	33704.81263	33170.76857
600	900	22528.93854	24156.84047	25518.88089	26128.90948	23996.99763	27195.14747	25398.50119	27565.73335	26712.17395	25807.39503	23580.95163	24971.96937	23818.3207	27278.9788	26057.55769	26705.57015	26050.65803	27092.64137	25415.56322	29128.34233	29997.08727	27498.65975	27363.74241	27481.18419	28463.02868	24909.24499	28754.61986	27784.91013
900	1200	18781.63144	19324.97405	20779.74912	20705.94982	19671.38121	21857.91435	20273.25555	22141.14428	20990.6292	20628.30198	19597.52268	19789.5323	19543.79907	21045.99743	20429.79002	20856.48601	20490.02838	21486.38133	20161.22462	24975.73142	23649.96095	23068.52849	23484.11313	23882.70309	22171.90108	19697.93767	23627.26829	22618.78096
1200	1500	15198.2798	17662.68077	18319.8197	17427.26466	17187.35223	17707.48349	17547.83597	18676.84522	18050.12182	17435.29312	16890.09173	16424.76575	16978.97331	17421.0533	17445.16551	17301.89221	17663.83232	17782.10179	17399.29633	20305.15106	18553.71186	19304.38527	20753.68848	20296.41132	18424.70954	17035.03996	18512.41841	17203.32188
1500	1800	12892.80858	15747.22365	16114.80654	14486.71904	14914.56618	14701.71619	14397.46602	15481.49769	14506.37184	14804.77871	14779.44283	14300.53961	15277.52788	14218.46309	14714.86802	14489.7275	14788.07417	14692.58783	14690.45852	16597.2485	14953.039	16784.73393	18044.18217	17235.04443	15568.98797	14781.26594	14309.71528	13893.83788
1800	2100	10738.93977	14238.11341	14994.88533	12768.51364	13235.68985	12376.75711	13419.08771	13409.68425	13043.8177	12703.98179	13471.29917	13096.7228	14182.51066	12291.00003	13352.25454	12538.93707	13451.48592	12470.89783	13343.28173	14857.17206	12904.96411	15211.45244	15947.65629	15852.36407	13472.27818	12793.91385	13453.85924	11809.4464
2100	2400	9929.02925	13318.09149	13641.1397	11406.73465	12036.31381	11069.90565	11941.94496	12219.18744	11998.68568	11534.91467	12039.34501	12106.90935	12577.92483	11188.41287	12010.2844	11388.1334	12152.51061	11394.90291	12000.43467	12922.80273	11077.674	14011.26429	14528.71432	14787.51332	11917.79503	11587.2525	12175.42773	10160.90243
2400	2700	8907.3169	11736.19518	12626.18281	10381.01931	11095.88401	9795.76855	10866.46568	10412.58105	10595.11106	9842.28501	10786.85709	10977.36809	12040.48667	9536.01551	11271.95405	9887.35668	11218.48192	9744.68979	11060.07885	10936.58355	9100.91362	12016.38613	13009.9864	13213.32035	10306.14585	10081.27859	9703.325	8489.25778
2700	3000	7917.88024	12027.40791	11246.21676	9062.35309	10148.61777	8493.42388	9814.2273	9395.97425	9489.11607	9276.28429	9753.68326	10243.22318	10634.49907	8561.39765	9669.0707	9013.36405	9718.75927	8879.18071	9718.11765	10522.91732	8826.45094	10542.19871	11463.35239	12132.35083	9985.45271	10315.58647	8915.15503	8662.41868
3000	3300	8312.3622	9414.74085	9880.85202	9005.21591	9492.50118	8878.26582	8837.51328	8842.87779	8893.13066	8574.41065	9479.80674	9003.19508	9955.0905	8369.0997	8795.23315	8474.18869	8874.37259	8388.62666	9097.28152	9146.49674	7789.51426	9932.11814	10985.18074	9921.3202	8411.21413	8037.31361	8109.0628	7532.28291
3300	3600	6275.15222	9114.02616	10545.1877	8211.08508	8462.63829	7239.61023	8480.59745	8092.25901	8639.69903	7990.11888	9326.11094	9227.48003	9967.87773	8315.09812	8998.55882	8300.90124	9141.77066	7770.82577	8994.67172	8553.87743	7111.76023	8875.59594	8932.17879	9691.02671	8171.12296	8208.29518	7529.58348	6729.14256
3600	3900	5633.74501	9399.59845	9140.12278	7405.86074	8508.21394	6087.55412	7872.24547	7300.94625	8264.78473	7450.91423	8700.72468	8467.0302	8734.24431	7039.86813	8005.99675	7326.50365	8123.06277	6699.43514	8159.11377	8749.42058	6799.58709	9656.38219	9046.09983	9427.85739	7877.03508	7002.752	7550.01675	5492.76647
3900	4200	5635.59839	7860.58337	8621.26554	6563.90541	7659.2289	5488.42505	6823.37625	6438.59377	6740.35756	6865.23573	8452.75019	6842.1833	8855.74066	5787.33254	7338.41277	6159.63114	7406.00499	6256.15298	7488.47531	7459.2068	6391.91444	8595.72557	8381.30871	8661.79253	7043.63587	6544.95837	6791.56871	6147.62191
4200	4500	5086.92588	7401.26213	8785.27927	6458.61816	7099.73458	5250.69211	7162.54108	6092.08101	6965.4644	6470.45906	8057.01209	7425.24805	8604.31438	6240.65557	7607.17876	6433.01884	7744.32937	6064.19914	7655.57456	7440.45203	6023.85611	6879.14458	7494.89483	6759.80748	6194.47802	5905.85043	6804.98764	5489.34534
4500	4800	5758.27652	8838.0561	8475.89347	6766.15451	7748.87379	6177.45657	6673.38453	6355.78688	7335.0899	6430.23272	8603.89993	7198.68331	8674.95162	6295.61099	7760.81082	6450.02327	7826.53335	6290.52821	7575.99629	6859.08179	5844.50197	8392.6312	8166.1622	7753.26276	6882.02671	6472.95348	6046.90651	5210.61446
4800	5100	5615.27403	6965.10993	6139.97322	6051.0307	6541.79944	5853.45763	5824.07437	6693.9076	6388.00623	6121.29886	6653.70579	6822.45261	5829.26947	5946.40484	5615.15653	5998.15351	5860.45442	5952.7974	5887.57315	6344.26456	5273.07568	7450.92539	6486.52036	7202.11219	5983.41343	6408.12826	7298.98901	4211.74133
5100	5400	5541.0242	6996.11554	6886.47838	5574.93357	6386.57783	5001.99132	6278.95958	5906.95202	6378.79604	5645.54991	7263.16857	5800.33039	7099.50837	5390.78815	6070.14818	5679.91089	6308.30447	5245.33026	6463.82946	6364.54004	5641.01566	6130.71398	6668.61967	6545.16911	5881.98915	5279.72163	6362.98013	5333.34113
