frame_start	frame_end	Left-Cerebral-White-Matter	Left-Cerebellum-White-Matter	Left-Cerebellum-Cortex	Left-Thalamus	Left-Caudate	Left-Putamen	Left-Pallidum	Brain-Stem	Left-Hippocampus	Left-Amygdala	CSF	Left-Accumbens-area	Left-VentralDC	Left-choroid-plexus	Right-Cerebral-White-Matter	Right-Cerebellum-White-Matter	Right-Cerebellum-Cortex	Right-Thalamus	Right-Caudate	Right-Putamen	Right-Pallidum	Right-Hippocampus	Right-Amygdala	Right-Accumbens-area	Right-VentralDC	Right-choroid-plexus	AirCavity	Skull	Vermis	Pons	CSF-ExtraCerebral	Head-ExtraCerebral	ctx-lh-bankssts	ctx-lh-caudalanteriorcingulate	ctx-lh-caudalmiddlefrontal	ctx-lh-cuneus	ctx-lh-entorhinal	ctx-lh-fusiform	ctx-lh-inferiorparietal	ctx-lh-inferiortemporal	ctx-lh-isthmuscingulate	ctx-lh-lateraloccipital	ctx-lh-lateralorbitofrontal	ctx-lh-lingual	ctx-lh-medialorbitofrontal	ctx-lh-middletemporal	ctx-lh-parahippocampal	ctx-lh-paracentral	ctx-lh-parsopercularis	ctx-lh-parsorbitalis	ctx-lh-parstriangularis	ctx-lh-pericalcarine	ctx-lh-postcentral	ctx-lh-posteriorcingulate	ctx-lh-precentral	ctx-lh-precuneus	ctx-lh-rostralanteriorcingulate	ctx-lh-rostralmiddlefrontal	ctx-lh-superiorfrontal	ctx-lh-superiorparietal	ctx-lh-superiortemporal	ctx-lh-supramarginal	ctx-lh-frontalpole	ctx-lh-temporalpole	ctx-lh-transversetemporal	ctx-lh-insula	ctx-rh-bankssts	ctx-rh-caudalanteriorcingulate	ctx-rh-caudalmiddlefrontal	ctx-rh-cuneus	ctx-rh-entorhinal	ctx-rh-fusiform	ctx-rh-inferiorparietal	ctx-rh-inferiortemporal	ctx-rh-isthmuscingulate	ctx-rh-lateraloccipital	ctx-rh-lateralorbitofrontal	ctx-rh-lingual	ctx-rh-medialorbitofrontal	ctx-rh-middletemporal	ctx-rh-parahippocampal	ctx-rh-paracentral	ctx-rh-parsopercularis	ctx-rh-parsorbitalis	ctx-rh-parstriangularis	ctx-rh-pericalcarine	ctx-rh-postcentral	ctx-rh-posteriorcingulate	ctx-rh-precentral	ctx-rh-precuneus	ctx-rh-rostralanteriorcingulate	ctx-rh-rostralmiddlefrontal	ctx-rh-superiorfrontal	ctx-rh-superiorparietal	ctx-rh-superiortemporal	ctx-rh-supramarginal	ctx-rh-frontalpole	ctx-rh-temporalpole	ctx-rh-transversetemporal	ctx-rh-insula
0	30	24.33771514892578	44.034828186035156	23.36602210998535	41.6248779296875	31.995182037353516	36.3140983581543	13.344050407409668	54.0696907043457	23.53864860534668	27.806455612182617	22.12908363342285	19.847335815429688	30.918338775634766	11.647411346435547	22.89718246459961	30.359155654907227	23.330215454101562	35.93149185180664	35.7904167175293	32.575775146484375	22.51896095275879	51.861602783203125	64.20063781738281	47.13215637207031	36.86342239379883	46.970252990722656	23.28476905822754	31.28241729736328	8.11953353881836	34.85966491699219	21.663053512573242	26.13129234313965	11.682452201843262	21.445079803466797	29.951810836791992	21.08332633972168	24.10860824584961	14.850735664367676	18.52964210510254	27.01926040649414	8.270088195800781	11.409289360046387	34.657691955566406	35.90718460083008	20.0816707611084	22.416912078857422	13.25507926940918	32.460330963134766	26.867013931274414	24.011932373046875	51.189876556396484	25.49479103088379	13.927203178405762	55.87770462036133	18.15673828125	23.874670028686523	25.822799682617188	18.76045799255371	23.247507095336914	12.50428295135498	16.74918556213379	16.368825912475586	29.26291275024414	30.883544921875	5.843596935272217	45.37130355834961	15.585997581481934	20.868663787841797	12.556180953979492	10.126693725585938	58.91716384887695	18.95134162902832	14.689142227172852	28.299724578857422	38.74123001098633	8.957710266113281	36.98635482788086	23.282855987548828	21.80328941345215	18.749107360839844	23.557674407958984	19.496986389160156	23.7116756439209	22.06546974182129	28.710268020629883	20.548824310302734	18.035072326660156	28.18179702758789	16.25295639038086	41.28239822387695	19.885845184326172	40.02961349487305	16.201812744140625	14.48495864868164	34.249786376953125	26.90843963623047	24.563512802124023	14.114923477172852	10.93319320678711	36.749359130859375
30	60	1872.098388671875	1953.4886474609375	2356.026611328125	2571.210205078125	2602.812255859375	2954.07568359375	2107.118408203125	2147.42236328125	3011.692626953125	2403.0205078125	1841.54248046875	2875.1953125	2290.08203125	1749.453857421875	1876.116455078125	1865.314208984375	2242.368896484375	2679.52783203125	2244.452392578125	3242.7900390625	2217.319580078125	2400.2255859375	2295.780517578125	3277.578369140625	2275.4404296875	1798.8199462890625	649.6456909179688	881.3262939453125	2414.27294921875	2125.613037109375	2621.441162109375	775.4996948242188	2328.23193359375	3129.659912109375	2685.648193359375	3180.16259765625	2377.2373046875	2686.395751953125	2410.499755859375	2388.713134765625	3269.762939453125	2467.142578125	3049.667236328125	3353.69091796875	3022.194091796875	2387.888671875	2484.81787109375	2248.77685546875	3031.919921875	2966.593994140625	2726.202880859375	3248.0009765625	2408.690673828125	2855.44873046875	2609.085205078125	2806.415771484375	3240.588623046875	2782.347412109375	2895.990234375	2278.406494140625	2692.09912109375	2849.794921875	2327.59326171875	2044.706298828125	4033.343017578125	3632.00439453125	2918.648193359375	3141.208984375	2812.267578125	3304.509765625	2679.5185546875	2416.1064453125	2417.5654296875	2235.986328125	3200.830078125	2816.045654296875	3164.828369140625	3037.480224609375	2932.6611328125	2333.321044921875	2513.35400390625	2589.089599609375	3312.43701171875	2597.863037109375	3095.697998046875	3580.978515625	2573.729248046875	2838.99658203125	2431.873779296875	2993.942626953125	3577.14990234375	2873.422607421875	2782.34228515625	2393.33544921875	2785.99169921875	2676.734375	2929.411865234375	2253.71728515625	3291.52099609375	3508.96728515625
60	90	9464.8876953125	10369.73828125	12959.4033203125	13282.806640625	14007.0390625	16633.33203125	12219.8779296875	10639.810546875	12115.3974609375	10770.421875	9574.9501953125	17290.884765625	11095.2021484375	9920.537109375	9651.958984375	9740.5068359375	12925.0	14310.138671875	14079.919921875	16460.650390625	11882.8994140625	11676.658203125	10728.67578125	17257.16015625	11065.2138671875	10840.73046875	2661.521484375	3889.849609375	12647.1875	10184.65625	12614.615234375	3070.314453125	13725.826171875	14823.5498046875	14706.4638671875	16669.5234375	12258.4716796875	13638.16796875	13457.9658203125	11885.6396484375	15703.3779296875	13694.318359375	15037.1240234375	16482.673828125	16322.384765625	12834.1533203125	13258.7841796875	12845.0126953125	14948.6181640625	13778.3984375	13890.279296875	18224.46875	12447.3974609375	14927.056640625	13611.3759765625	15739.380859375	15856.1357421875	14878.1796875	14574.748046875	12567.3330078125	12597.0419921875	13396.4267578125	15735.7958984375	11012.3310546875	15406.7158203125	14901.1259765625	14177.3798828125	14099.6533203125	14200.115234375	17517.6953125	11387.7978515625	13199.029296875	13478.064453125	12035.921875	14995.8876953125	14698.2421875	15016.6259765625	15321.8447265625	15543.95703125	12996.435546875	12052.3203125	13214.1787109375	15131.5546875	14635.5478515625	15347.0419921875	17839.54296875	13323.2783203125	15706.5146484375	13421.4453125	15327.2978515625	16417.837890625	14914.126953125	14691.845703125	12166.767578125	13608.23046875	14047.9248046875	15083.24609375	11186.7958984375	16293.103515625	14421.650390625
90	120	18866.705078125	20225.994140625	25702.193359375	25905.794921875	27906.482421875	32339.287109375	24337.27734375	20340.10546875	24413.61328125	21721.236328125	18430.55078125	29996.32421875	21608.171875	18490.66015625	19076.623046875	19468.462890625	25800.8828125	27471.931640625	27856.513671875	31602.05078125	23038.966796875	22444.04296875	21466.96484375	27689.10546875	21726.328125	19634.01953125	4847.27880859375	7242.95458984375	25269.697265625	19730.939453125	23681.830078125	5642.7880859375	26396.42578125	28617.185546875	29699.544921875	31995.09375	23918.4375	26837.11328125	26427.41015625	23911.490234375	28772.353515625	27737.65625	27970.013671875	31881.537109375	30251.826171875	25216.443359375	22808.810546875	25713.1640625	29879.671875	28681.064453125	28095.3671875	34474.4921875	24733.7265625	28403.130859375	26979.10546875	29550.234375	31298.1953125	30160.556640625	28938.49609375	24566.990234375	24327.470703125	27292.375	30886.00390625	21539.068359375	31346.44140625	28457.8515625	26573.90234375	27714.63671875	29692.720703125	32444.6640625	20596.0390625	25831.361328125	26553.125	23713.232421875	29509.654296875	29103.107421875	29188.88671875	31066.14453125	29172.05078125	25854.560546875	21923.392578125	26322.580078125	30092.61328125	29197.763671875	29824.76953125	35563.41796875	25998.21484375	29597.130859375	26233.515625	29692.310546875	31184.1796875	30204.720703125	28610.234375	24830.27734375	25046.921875	27492.880859375	31042.83203125	22422.009765625	30887.044921875	26667.88671875
120	150	27488.330078125	30550.87890625	38095.91796875	38130.109375	40263.82421875	48774.41796875	34024.16796875	29310.412109375	33643.99609375	32313.28515625	27017.853515625	44173.2265625	30940.65625	26560.0	27933.423828125	28956.958984375	38634.15234375	41458.453125	42902.28515625	44997.01171875	34358.3203125	32550.322265625	30889.482421875	42395.09765625	31526.83984375	28721.544921875	6454.59130859375	10129.9462890625	39062.37109375	30916.19921875	33633.41015625	7990.77099609375	38698.17578125	39406.7421875	42205.171875	48366.19921875	34377.390625	38553.2734375	39783.7265625	36736.0	41851.3125	40026.72265625	41572.0234375	48519.53125	43728.9453125	37571.07421875	33925.10546875	36506.22265625	42089.91015625	40482.21484375	41091.640625	51374.04296875	35597.08203125	41870.48046875	39513.96484375	44168.59375	44016.6796875	43957.171875	41549.02734375	37070.44140625	36709.55859375	40043.57421875	44132.39453125	31670.869140625	46170.4375	39165.97265625	41092.42578125	38802.87109375	43390.56640625	49040.94140625	30830.6171875	37564.84375	39987.22265625	35068.3671875	41572.58984375	42486.74609375	41831.45703125	45566.80078125	42379.42578125	37387.1875	32440.044921875	38210.62890625	44016.02734375	42182.8828125	43276.00390625	52208.69140625	37693.640625	43382.265625	38653.01953125	43977.99609375	44082.34375	44288.05078125	41638.125	36613.73046875	37324.00390625	40475.34375	43511.18359375	32381.8125	42889.38671875	38464.140625
150	180	31924.009765625	35321.67578125	44122.9609375	44671.60546875	49503.40234375	56101.33203125	38128.2578125	33733.7265625	38990.67578125	37661.13671875	30763.60546875	49416.6953125	34652.890625	28825.94140625	32181.234375	33954.8046875	44241.75	46247.375	48026.52734375	53042.3515625	38303.21484375	37197.17578125	36272.04296875	48325.984375	35289.8828125	32349.837890625	6990.09375	11212.3564453125	43809.05859375	35254.578125	37592.25	9019.6640625	44670.42578125	45513.6875	48378.05078125	54451.34765625	39412.0390625	45118.46875	45443.74609375	41775.828125	46587.6640625	46113.765625	47184.08203125	53780.56640625	50460.5859375	43166.6640625	38581.5234375	41967.6015625	47375.51171875	46965.10546875	47721.00390625	60062.11328125	41812.15625	50046.88671875	45287.54296875	50772.4296875	49704.5546875	50446.59765625	47786.81640625	42981.328125	41835.01953125	45030.12890625	48860.88671875	35407.54296875	49227.890625	44265.82421875	45961.26953125	43839.359375	49474.46484375	55681.78515625	35308.28515625	43904.04296875	45390.88671875	41072.08984375	48788.34375	49676.921875	47588.55078125	51979.84765625	48819.79296875	44386.234375	37366.56640625	42899.39453125	49191.2578125	48083.38671875	49933.1875	60660.08203125	43104.58203125	49404.2265625	44356.22265625	50330.8515625	49629.91796875	50346.69140625	48092.61328125	42893.93359375	42765.91796875	46404.0859375	51937.05078125	37011.01953125	50348.73046875	43840.8359375
180	240	33439.37890625	36898.421875	45771.30078125	47368.203125	50798.0859375	58785.015625	40857.79296875	35149.046875	37917.921875	38398.6328125	31191.396484375	50566.453125	36975.5234375	29412.130859375	33837.9296875	35200.4375	46353.14453125	48675.94140625	51206.5703125	57199.3671875	40396.46875	38357.50390625	36396.7265625	50502.734375	37210.57421875	31732.984375	7003.1484375	11448.2978515625	45385.53125	36454.234375	38216.453125	9276.4111328125	48103.68359375	47432.09765625	50849.37890625	56476.90625	37917.2109375	46574.4375	46987.6171875	43980.53515625	47101.94921875	48309.59375	49012.71875	55969.0078125	50313.53125	45543.3828125	40212.875	43288.8828125	49657.53125	47700.34765625	48187.44140625	59326.98828125	43161.63671875	50149.1796875	46601.9296875	51487.140625	50718.25390625	52147.28125	48957.86328125	45018.84765625	43474.64453125	47186.70703125	52124.87890625	37315.765625	51086.8359375	45301.078125	48886.37890625	44816.98828125	51112.34375	56186.61328125	36882.91015625	45806.203125	47808.3359375	43074.44140625	48861.5078125	51005.609375	48896.26953125	53526.64453125	50173.73046875	45985.41015625	38158.23828125	44495.53125	51966.84765625	50259.140625	51251.1328125	62816.9609375	45401.1484375	51253.41796875	45221.5	52469.765625	50913.40625	53012.51171875	49102.703125	45154.09765625	44514.0390625	48944.21875	52606.46875	37679.73828125	51335.51953125	44707.84765625
240	300	33370.1953125	36937.67578125	45792.23046875	47326.8125	49639.48046875	58570.66015625	42511.4765625	35121.33984375	38328.19921875	40349.9296875	30171.6015625	48914.0390625	37142.28515625	26661.609375	33941.8125	35154.87890625	45784.6484375	49054.18359375	49940.5	57020.74609375	42692.65234375	38561.01953125	37370.40234375	50379.3984375	37567.26171875	29800.662109375	7151.19921875	11571.48046875	44460.1953125	36912.17578125	37001.51953125	9802.5	46938.17578125	46304.84765625	49328.375	55228.921875	38813.6875	46243.18359375	46448.265625	43981.8828125	45983.703125	46726.94921875	47954.6875	54665.515625	49079.71875	45026.94921875	40689.875	43875.71484375	47783.53125	46778.50390625	47090.27734375	56330.09765625	42055.16796875	49335.02734375	46204.125	50363.8671875	48471.79296875	51209.18359375	48094.26171875	44492.94140625	43475.65625	46693.54296875	49617.24609375	36621.49609375	50522.078125	44979.26953125	47843.0703125	45624.33984375	49054.03125	53766.22265625	35537.02734375	46268.1328125	47396.32421875	42295.27734375	47599.16015625	49531.6875	47669.33984375	51934.9609375	48770.890625	46314.5703125	38054.30859375	45129.51953125	49571.4296875	49030.9765625	49726.93359375	58995.41015625	44250.62109375	49686.41015625	44764.54296875	50843.41796875	49422.1328125	51873.78125	48473.16796875	44373.22265625	44422.46875	47781.2265625	52460.421875	39440.8125	51284.10546875	44207.578125
300	360	32062.978515625	35564.62109375	43008.33984375	45314.48046875	46237.94140625	55625.1328125	41124.84375	32986.453125	35980.2578125	38005.74609375	28435.142578125	47207.71484375	36490.9140625	24738.90234375	32430.66796875	34133.64453125	43502.421875	47630.07421875	47590.3828125	53254.15234375	41514.7890625	36333.65625	36796.84375	48967.9375	35751.5234375	28326.029296875	6795.8125	11177.9140625	41980.0234375	34062.41015625	34086.15234375	9779.8076171875	45386.6796875	43463.640625	46067.95703125	50707.8828125	37156.24609375	43844.89453125	43344.0234375	41280.77734375	43668.80078125	43322.16796875	44738.8203125	49044.1484375	46769.17578125	42414.09375	38963.9375	40333.73828125	44576.19921875	42991.484375	44378.0625	52832.79296875	39654.37890625	46386.671875	42537.9375	46763.5625	46265.609375	47693.3203125	44651.984375	41380.0390625	40985.8046875	43332.3125	46568.80859375	36820.85546875	48369.015625	42905.35546875	45526.94921875	42735.8203125	45593.9609375	49179.79296875	34299.828125	43411.04296875	44684.26953125	40594.3671875	43444.5	47030.40625	44399.625	48765.03515625	46245.3515625	43698.8828125	35504.28515625	41501.2890625	45765.234375	45632.16015625	45826.2109375	52479.21484375	41350.59765625	46979.9140625	42087.8359375	47591.9375	47619.6484375	47870.17578125	45027.66796875	41594.3125	41193.640625	44611.7890625	47965.4296875	37029.65234375	46484.23828125	42219.6953125
360	480	29474.828125	33007.06640625	38774.73828125	42682.4375	40347.07421875	49722.4765625	38972.890625	30899.359375	33486.0234375	35439.98046875	25625.298828125	43946.6171875	34072.36328125	22735.369140625	29847.517578125	31708.3984375	39342.24609375	43453.43359375	42434.515625	47576.98046875	38875.078125	33643.88671875	34494.21484375	44363.09765625	33682.16015625	25222.02734375	6250.3271484375	10740.8583984375	37495.3359375	31781.634765625	29923.302734375	9713.0634765625	40194.296875	38921.6640625	40200.953125	43626.46484375	33738.00390625	39987.73046875	38541.24609375	37560.1640625	37383.17578125	38118.421875	39155.84765625	43888.20703125	40834.69140625	38107.83984375	35137.75	35846.1953125	39430.46875	38741.1484375	38406.97265625	44074.890625	34975.703125	40823.03125	37684.10546875	40968.2109375	41119.3203125	41803.08984375	39473.11328125	36759.8125	36890.34765625	38196.7578125	41390.703125	34513.9765625	41215.875	38644.75390625	40339.91015625	37970.86328125	40316.73828125	42756.18359375	31815.2578125	39460.62890625	38947.03515625	36922.953125	38456.5390625	40472.85546875	39388.48828125	42728.82421875	40805.8671875	38552.83203125	32679.935546875	36816.31640625	40831.3828125	39647.73046875	40339.6171875	45381.10546875	36584.78515625	42027.7734375	37081.62890625	41407.78515625	40861.9140625	42357.41015625	39814.5234375	37082.97265625	37240.4140625	39296.25390625	42737.484375	35598.703125	41121.35546875	38859.1171875
480	600	26670.630859375	30055.16796875	33442.18359375	37744.44140625	34639.26953125	43461.6796875	37193.1953125	28366.40625	30393.189453125	33172.96484375	22569.53125	39765.36328125	31427.27734375	19303.802734375	26908.908203125	28975.609375	33602.98828125	39409.4375	36631.7890625	42682.44921875	35803.66015625	29998.638671875	31437.822265625	38246.0859375	31127.689453125	23292.2109375	5914.4296875	10214.708984375	32102.275390625	29100.787109375	25128.33984375	9721.9072265625	34353.8515625	33797.91796875	34169.8828125	36307.6796875	31065.9453125	35189.55859375	32870.15625	32749.201171875	31380.3203125	32098.845703125	34223.7578125	36413.6171875	35348.546875	32952.41015625	31189.697265625	30583.76953125	33202.38671875	32709.640625	33144.89453125	35291.87890625	29513.62890625	34512.5859375	32041.966796875	34857.4296875	35445.0703125	35645.86328125	33467.8984375	31371.443359375	31643.990234375	32840.58984375	34868.4296875	30330.546875	35250.06640625	34562.171875	34209.15625	32351.0859375	33966.19921875	35739.82421875	28405.201171875	34490.45703125	33577.23046875	32279.1171875	32319.3515625	33979.62890625	34275.9921875	35554.296875	35002.8828125	33492.6328125	28841.796875	31285.37109375	34729.59765625	33137.87890625	33619.7109375	36995.109375	30877.80078125	34655.921875	31709.619140625	34721.95703125	35845.77734375	36074.5	33873.1171875	31907.642578125	31808.59765625	33326.609375	35650.56640625	30690.642578125	34569.50390625	33976.64453125
600	900	23122.818359375	26049.13671875	26641.439453125	31898.87890625	27444.189453125	34976.328125	32912.6328125	24327.330078125	25146.6015625	28819.2578125	18683.607421875	30932.517578125	27079.29296875	16669.5390625	23282.599609375	25582.38671875	27153.75	32631.17578125	28291.544921875	33641.31640625	31612.19140625	25425.4453125	27412.787109375	31402.228515625	27601.11328125	18505.7109375	5494.1259765625	9793.4150390625	25262.109375	25649.890625	19716.91796875	9751.076171875	28004.869140625	27158.880859375	26910.1484375	28479.958984375	25012.05859375	28418.7421875	25878.69921875	26787.298828125	25558.470703125	25370.60546875	27284.154296875	29085.267578125	27998.619140625	27133.2890625	25940.216796875	24634.48046875	26657.193359375	25982.236328125	26260.2734375	27609.94921875	23697.0390625	27757.064453125	25598.05078125	27308.00390625	28233.599609375	28250.763671875	26663.232421875	25071.763671875	26164.9375	26206.61328125	26974.34765625	25729.25	28444.044921875	28230.173828125	27926.8046875	26790.314453125	26432.4609375	27749.048828125	24262.3515625	28193.642578125	26333.5546875	26444.287109375	25534.24609375	26896.40625	27576.279296875	27900.03515625	28057.4453125	26540.623046875	24271.263671875	25214.318359375	27363.548828125	26249.517578125	26556.275390625	28361.20703125	24198.1953125	27684.607421875	25033.68359375	27399.2265625	28801.57421875	28285.58984375	26706.185546875	25196.48046875	25567.1640625	26384.15234375	28068.244140625	26577.162109375	27927.474609375	27872.91796875
900	1200	20182.921875	22396.517578125	20276.39453125	25399.849609375	20535.056640625	26507.765625	27578.91796875	20529.435546875	20278.1953125	23437.640625	15494.9619140625	24256.548828125	22964.041015625	14374.4716796875	20219.025390625	22145.962890625	20621.580078125	25874.228515625	21144.16015625	25818.78515625	26500.3984375	20306.396484375	22468.6953125	24336.83203125	23505.87890625	16183.521484375	5239.78564453125	9422.85546875	19036.845703125	22129.083984375	15206.14453125	9904.9267578125	22096.025390625	22051.853515625	21197.43359375	22006.802734375	20941.75	23116.365234375	20246.638671875	21457.162109375	20576.03125	20254.541015625	21662.060546875	22399.427734375	22167.90234375	21413.43359375	21160.947265625	19484.69921875	21007.646484375	21155.4609375	20633.552734375	21672.87890625	18357.880859375	21917.6484375	20034.162109375	21539.927734375	22097.58203125	21959.21875	20821.861328125	19698.392578125	20769.09375	20234.958984375	20619.02734375	22012.2578125	21897.41015625	22909.375	22059.572265625	21352.986328125	20393.38671875	21499.357421875	20293.658203125	22854.025390625	20509.130859375	21398.748046875	20934.595703125	21414.423828125	22089.630859375	22166.919921875	21965.14453125	20916.951171875	20323.3125	19541.62109375	21142.52734375	21121.58984375	20749.826171875	22333.267578125	18728.92578125	22481.294921875	19420.962890625	21341.916015625	22315.927734375	21920.095703125	20763.77734375	19670.171875	20268.380859375	20135.412109375	22210.115234375	21272.11328125	22782.9296875	22592.353515625
1200	1500	18286.41015625	19326.875	16270.9375	20819.5234375	16734.68359375	21615.5390625	23347.623046875	17668.474609375	17529.677734375	19064.3828125	13633.0458984375	19004.7265625	20275.998046875	13343.830078125	18284.634765625	19356.783203125	16482.060546875	21098.80859375	16544.330078125	20783.193359375	22783.689453125	17081.59375	18336.724609375	19396.251953125	20938.037109375	14423.884765625	5075.470703125	9242.875	15662.5947265625	19713.181640625	12692.2587890625	9978.8583984375	18915.505859375	18191.65234375	17498.8515625	18464.8359375	17604.900390625	19572.62109375	17014.91796875	18505.515625	17750.9453125	17099.27734375	18783.7578125	18878.53515625	18604.19921875	18135.431640625	17337.57421875	16619.212890625	17595.486328125	18170.494140625	17853.095703125	18689.099609375	15463.96875	18358.732421875	16861.515625	17658.05078125	18324.03125	18032.16796875	17357.0703125	16536.7734375	17301.615234375	17132.216796875	17478.958984375	18500.35546875	18587.064453125	19275.408203125	18941.970703125	17750.505859375	16925.509765625	17951.96875	17488.798828125	19145.3359375	17137.400390625	18158.67578125	18083.3984375	18332.958984375	19301.94921875	18724.357421875	18494.79296875	17333.271484375	16919.57421875	16710.1796875	18143.18359375	18680.404296875	17524.244140625	18995.79296875	15593.6103515625	18354.009765625	16473.443359375	17953.640625	18005.732421875	18197.716796875	17214.30859375	16646.552734375	16854.44140625	16845.208984375	17941.64453125	17801.34765625	18470.630859375	19047.359375
1500	1800	16755.130859375	17172.33203125	13457.162109375	17641.486328125	14316.40234375	18312.8984375	20354.525390625	15456.1474609375	14522.1884765625	15546.748046875	11967.8720703125	15438.9658203125	17792.697265625	11643.2919921875	16715.765625	17143.046875	13645.8603515625	17903.802734375	14184.251953125	17419.7890625	19992.453125	14807.2783203125	15333.896484375	15184.55078125	17555.873046875	12380.5625	4807.88232421875	9077.2216796875	12500.7783203125	17237.94921875	11090.0703125	9765.0693359375	16757.05078125	15526.6240234375	15234.544921875	16175.923828125	15281.208984375	17201.955078125	15107.4287109375	16129.6220703125	15564.68359375	15107.0322265625	16612.369140625	16524.1640625	16493.58984375	15956.845703125	15275.43359375	14443.701171875	15274.7138671875	16294.6142578125	15700.4990234375	16315.1728515625	13684.876953125	16003.5537109375	14646.1181640625	15768.6240234375	16018.2998046875	15876.44921875	15145.8251953125	14484.326171875	15148.8203125	14920.107421875	15333.8017578125	16659.572265625	16560.486328125	16659.974609375	16273.9755859375	15444.8154296875	14802.587890625	15841.4912109375	14447.5029296875	16762.533203125	14906.3701171875	15810.5126953125	16225.048828125	16054.0380859375	16559.685546875	16265.8896484375	16150.2802734375	15106.4853515625	14708.80859375	14512.822265625	15833.4130859375	15852.12890625	15380.291015625	16753.28125	13318.8974609375	16242.8095703125	14114.6533203125	15559.5078125	15993.48828125	15885.6083984375	14929.9951171875	14575.787109375	14423.890625	14630.05859375	15276.2119140625	15436.1650390625	16223.6513671875	16626.45703125
1800	2100	15495.337890625	15089.330078125	11328.19140625	15044.3271484375	12386.552734375	15701.697265625	17407.07421875	13159.431640625	13216.7421875	13533.0126953125	10818.93359375	13024.0859375	15287.708984375	10878.1396484375	15356.0517578125	15213.2861328125	11495.46875	14814.009765625	12351.1025390625	14985.1904296875	16928.7578125	12875.953125	13698.6435546875	12080.896484375	15277.318359375	11624.732421875	4493.60546875	8885.6591796875	10773.60546875	15617.2861328125	9855.2392578125	9481.4765625	15434.3984375	14481.9833984375	13771.3173828125	14433.15234375	13888.6708984375	15433.146484375	13524.9130859375	14547.984375	14616.51171875	13954.7451171875	14827.873046875	15051.5390625	14351.8125	14154.3916015625	13855.3896484375	12730.20703125	13962.083984375	14416.7783203125	14339.5576171875	15316.986328125	12018.8798828125	14389.16796875	12958.58984375	13818.47265625	13854.1806640625	14116.1396484375	13532.474609375	12787.2978515625	13442.15234375	13222.1748046875	12954.1572265625	14377.755859375	14126.63671875	14888.39453125	14956.5224609375	13836.8203125	13168.6962890625	13813.3349609375	12728.93359375	14971.1689453125	13365.76953125	14094.775390625	14224.1474609375	14336.3271484375	14746.56640625	14673.3642578125	14344.5087890625	13299.25	13189.2529296875	12838.1640625	13869.0654296875	13983.634765625	13792.1044921875	15361.4111328125	11834.521484375	14063.921875	12477.7978515625	13822.7138671875	13761.4189453125	13925.0390625	13194.552734375	12753.46875	12879.5224609375	13035.6259765625	13827.3974609375	13658.02734375	14549.833984375	14575.6064453125
2100	2400	14424.525390625	13593.5517578125	9993.986328125	13054.5927734375	11335.5126953125	13336.728515625	14932.9951171875	11483.83203125	12069.9140625	11799.484375	9890.3876953125	11442.1708984375	13798.5068359375	10374.6396484375	14363.828125	13825.982421875	10042.216796875	13039.4716796875	11016.4833984375	13071.025390625	15339.7392578125	11614.705078125	11822.5283203125	11249.3486328125	13771.4970703125	10671.33984375	4269.91015625	8684.9765625	9415.599609375	13853.0966796875	9006.232421875	9264.05078125	13919.5478515625	12636.4755859375	12209.7880859375	13041.65234375	11524.96875	14102.0029296875	12110.5283203125	13387.0302734375	13552.150390625	12597.90234375	13789.3994140625	13769.59375	13224.0576171875	12917.296875	12342.2998046875	11746.8173828125	12659.40234375	13117.7607421875	12838.1865234375	14175.6591796875	11081.1884765625	13261.2138671875	11782.388671875	12963.205078125	12781.86328125	12819.57421875	12183.6064453125	11670.3984375	12156.12109375	12263.1181640625	11369.005859375	12407.59375	13278.103515625	13318.9482421875	13503.03515625	12833.8740234375	12057.1806640625	12472.5	12068.52734375	13916.1708984375	11950.30859375	12912.4765625	12823.6474609375	13440.443359375	13750.6865234375	13808.98046875	13150.84375	12169.5947265625	11620.9072265625	11925.068359375	13079.314453125	13103.203125	12464.2373046875	14568.3779296875	10593.314453125	12773.2724609375	11423.333984375	12706.873046875	12766.8798828125	12752.79296875	11913.6181640625	11649.296875	11705.4716796875	11659.943359375	12853.228515625	12504.759765625	13508.119140625	13336.525390625
2400	2700	13528.8056640625	12042.748046875	8728.12109375	11332.423828125	10030.04296875	12539.318359375	13545.130859375	10455.0400390625	10667.4609375	10248.54296875	9102.591796875	9799.1259765625	11851.6591796875	9525.037109375	13348.2548828125	12366.0556640625	8869.896484375	11379.80859375	9773.3251953125	11666.1435546875	13328.2373046875	10558.87109375	9869.931640625	9573.453125	12448.9033203125	9603.08984375	4133.29833984375	8407.4111328125	8564.88671875	12456.55859375	8264.611328125	8991.0205078125	12738.5888671875	12010.4794921875	11021.2275390625	11857.7314453125	10753.9765625	12942.443359375	11316.361328125	12477.943359375	12513.1640625	11865.4287109375	12715.0595703125	12548.943359375	12493.1103515625	11681.5439453125	11470.1337890625	10840.0439453125	11828.3916015625	12344.5556640625	11978.02734375	13204.564453125	10150.208984375	12366.1787109375	10786.7392578125	11830.5703125	11969.0615234375	11760.375	11223.2607421875	10903.0732421875	11346.8388671875	11142.830078125	10493.2353515625	11641.390625	12296.00390625	12231.197265625	12696.6240234375	11014.0908203125	10882.642578125	11483.7373046875	10140.4208984375	12792.744140625	10858.2314453125	12274.0537109375	12142.7958984375	12394.228515625	12906.0517578125	12664.19140625	12133.83984375	11326.6630859375	10363.5634765625	10723.6640625	11536.701171875	12362.6689453125	11552.0234375	12975.619140625	9725.6376953125	11759.0771484375	10539.20703125	11772.66796875	11654.59765625	11679.8974609375	10970.833984375	10652.87890625	10694.943359375	10920.548828125	11509.3623046875	11251.4453125	12193.03515625	12353.0380859375
