frame_start	frame_end	Left-AV	Left-CeM	Left-CL	Left-CM	Left-LD	Left-LGN	Left-LP	Left-L-Sg	Left-MDl	Left-MDm	Left-MGN	Left-MV(Re)	Left-Pf	Left-PuA	Left-PuI	Left-PuL	Left-PuM	Left-VA	Left-VAmc	Left-VLa	Left-VLp	Left-VM	Left-VPL	Right-AV	Right-CeM	Right-CL	Right-CM	Right-LD	Right-LGN	Right-LP	Right-L-Sg	Right-MDl	Right-MDm	Right-MGN	Right-MV(Re)	Right-Pf	Right-PuA	Right-PuI	Right-PuL	Right-PuM	Right-VA	Right-VAmc	Right-VLa	Right-VLp	Right-VM	Right-VPL
0	30	63.92178	23.49903	126.8939	93.81649	71.10145	39.6768	19.40408	8.18066	126.46677	61.66434	14.24301	5.91607	10.21467	58.7853	25.82178	15.16963	18.74394	22.0225	6.75213	29.48095	65.25719	36.35016	53.60514	26.96759	10.5545	65.21658	26.1323	51.46618	101.77981	23.74549	91.79911	32.51267	17.81466	146.22198	2.59584	27.42081	20.877	76.8979	15.85648	22.4729	21.92894	6.17681	50.15009	71.88522	4.17904	36.6175
30	60	2420.91991	1638.91889	3116.14559	2723.21774	3000.94622	3580.17751	2362.74723	2991.63004	3132.33481	3161.78028	3834.2979	1298.34013	2013.17348	2625.42446	3511.52427	2331.35458	2794.18777	1736.23146	1665.96874	1940.97571	2303.75592	2568.19427	2989.92558	2801.98542	2348.32549	2758.83027	2680.65103	2349.76907	3007.16686	2059.95352	2607.58483	3066.62789	3112.66123	3214.81517	1493.82142	1971.45637	3512.76834	2877.50479	2477.91008	3265.53092	2205.47671	1652.74292	2103.51451	2525.48066	1566.06238	2348.12697
60	90	14375.81735	10921.42587	16443.47611	13311.13683	15536.90862	14569.51852	16195.5532	15008.71112	16527.34984	16118.73639	15616.92305	9096.82963	11424.93912	18014.83489	12792.12439	13318.60039	14328.84197	11327.15158	8755.36686	12568.97853	13376.09196	10117.15806	12412.87327	18052.85266	15159.04078	22347.75282	14736.96633	19282.73198	12055.56236	18370.42475	12812.83744	18255.27929	17824.01331	14031.45929	12203.98887	12174.94039	16660.14817	12843.21529	12592.7517	13588.19693	12765.65395	12616.40365	13561.43426	14382.38191	7855.32983	12673.9844
90	120	25996.29794	23070.75165	31723.42201	25987.37305	32924.70328	25961.58775	34658.63435	24763.92312	33974.07582	32375.32397	25650.69685	21294.67596	24620.17391	32819.58922	23591.49955	26354.00972	26738.50063	21874.86695	20420.28776	24129.00646	27237.27702	22610.43834	24809.34088	28830.59837	21242.94526	35674.98003	27090.0625	31523.77637	25878.72837	30590.47013	28335.77629	36001.90341	32317.9539	29809.80672	20617.22666	24189.25477	33182.45031	28221.33283	28302.73511	25699.54682	21216.04481	21421.44857	26258.28388	29396.60121	16223.8973	27095.61237
120	150	38349.10465	35151.41821	45166.88229	40931.79881	43682.14333	35436.79668	45747.06981	36749.04474	47778.74597	44839.3763	37044.20977	33058.34304	36216.42124	51291.50485	37650.15052	38576.61164	39323.40531	31425.08263	32985.09462	35085.20037	39424.8623	27802.58426	39191.04085	45505.93064	38124.31524	58841.12413	43941.47759	46035.02717	34895.5167	48824.09844	36808.71229	56475.65341	49505.72443	37256.25918	35801.55312	37323.87711	53700.79759	36841.23707	41016.24865	37524.03911	36790.12152	36729.98611	39337.06546	44103.8824	24885.17676	39872.78129
150	180	45972.07578	41566.57782	56849.56302	46121.81352	54048.15595	38819.93719	55328.09437	44618.62891	61049.23501	54712.54524	44478.1335	40544.18288	39559.25956	57536.86508	42525.55015	40828.48011	44448.32292	39340.36123	39742.54688	43137.53068	48355.91123	33323.58956	42766.41508	44099.00709	38508.92136	59843.07378	50420.90131	50226.52379	39664.0513	52288.57932	37195.02073	62702.49109	56815.23115	43123.59447	35045.13398	50160.21867	53501.21648	40003.95686	43532.58781	44171.25339	36689.1812	35396.04579	46303.52857	50969.0669	27606.23112	43414.90767
180	240	48328.9965	44934.74273	57266.82943	51379.62044	54680.01638	43205.54306	56368.12426	44414.65057	61874.80528	57108.53386	47186.4627	41985.67116	46768.35907	61412.0747	46802.43304	45671.09102	46972.37542	41494.13591	41100.20312	45086.80993	50286.12612	31881.8683	46673.9126	48421.58111	42425.75178	60781.51172	51505.22356	52805.60387	43475.32942	54977.61157	44116.91436	62240.51775	56987.79506	49228.55981	38386.03086	49058.5807	60838.15294	48178.88624	46577.32347	47407.14288	39208.50863	38193.73828	45263.84475	52040.40317	28208.05859	47636.50426
240	300	48374.54555	46069.26983	54428.94818	54539.50966	52300.9683	43023.03107	54458.14841	46206.11967	60425.87529	55587.82307	46615.46162	40843.20916	49494.76387	60883.92928	45436.85557	45475.78151	46098.14693	43048.73461	41076.24826	46347.75394	51414.30156	32927.64676	46252.76482	45238.17149	44957.09433	56992.66146	56761.55273	47896.85795	43907.09052	53171.41661	44123.16587	60940.07178	55925.34798	46153.56682	41577.23906	53903.0732	61722.35993	47929.80155	47865.19051	46907.31108	39996.81711	43175.40017	47961.31832	54002.58303	32566.3916	48531.11998
300	360	45601.67443	41426.38792	52863.66016	51930.19861	47420.89964	40803.16284	49526.58496	42247.55788	59406.90957	53273.04184	47848.31704	36321.74538	45020.7397	58223.45444	44631.87383	45301.7717	44395.11054	39703.81387	39522.12804	45196.85279	49502.58881	32167.48298	44489.67077	42794.5925	43477.9192	54642.86762	54541.40355	45665.53409	40978.34403	51209.44339	41489.85487	58819.06276	53189.09184	43206.72683	43190.43789	48516.7525	61280.08473	45681.21334	47809.00499	45998.21448	39645.8937	46003.22483	46925.92027	50780.44591	30572.76855	48407.77432
360	480	43780.29852	40663.52181	47918.80469	47740.4485	44140.10757	37340.76209	47472.93195	37875.97514	55521.46431	47428.27399	40809.68804	38636.42259	41728.84793	53269.05446	41348.85821	42383.57487	40880.90736	39204.00366	38849.9171	43669.26434	47537.11091	31413.10491	43203.1984	40486.65351	40967.92235	48292.18707	49460.89792	41193.64968	37078.37237	44740.08092	37226.29883	54069.8563	46765.67087	40069.03497	39525.67617	43009.90527	51033.35539	40741.87869	40947.97147	40089.74983	37333.94121	40222.43229	45433.11811	49924.84002	29545.19368	44094.36037
480	600	37721.2227	37663.02999	40858.39115	42476.97759	37779.02411	33068.49487	40270.08444	36985.18359	46747.9454	41523.46102	37043.93708	34461.94371	38811.38049	46153.20736	35998.64492	36372.04582	35849.57212	35431.63792	35273.49262	39626.0941	42237.38692	27721.83147	38569.76757	37616.41813	37064.30695	42774.62023	45125.55906	33768.15092	32941.39872	39024.67135	34279.04823	47379.07968	42159.33726	36894.33499	34539.08711	40445.94734	46860.82847	36022.71482	38297.53224	36272.84981	36383.95624	37365.93403	41621.62314	43520.6828	27939.26042	40798.36109
600	900	32250.0392	32996.11115	32544.0599	36239.74518	28473.70192	28366.08394	30559.66754	27866.18395	38140.83488	33512.89004	31433.7865	29973.55788	32810.11261	36637.28538	30434.58989	31105.3174	29228.44414	32074.64794	32446.76411	34615.09014	35884.37164	27505.90179	33298.97514	30945.32495	32243.64433	34428.59093	36491.95048	29102.03382	28281.71881	31465.02981	28563.9713	36526.33301	32542.07679	31102.04147	29360.55859	31876.56316	36536.61442	30956.23542	32341.00123	29303.86447	31742.69796	31851.73546	35978.17593	36965.68365	24397.38704	34396.40621
900	1200	25113.46261	26147.39501	23487.15	28992.58896	20772.71995	24647.37665	23659.2168	21978.15625	27764.94396	24437.21442	25034.95842	23217.4462	24634.35533	27422.97245	25055.10066	24809.84902	22864.81384	26782.24315	25390.73394	27984.87085	28655.32548	22530.23968	26975.57047	24641.67133	26414.13915	25474.35894	28315.89167	21533.77947	24669.72015	23453.71589	22806.36388	28125.39022	24539.41097	25821.1133	23644.82422	24474.4477	28760.027	26227.16501	26436.02281	23049.21611	26475.9618	25495.73438	28169.54998	28771.74025	20657.82617	28091.66885
1200	1500	20230.53777	21916.55835	18855.70176	23564.61913	17012.57335	21296.28454	17720.63578	18275.34846	21668.58542	19383.17716	20481.23008	20534.21502	20965.25522	21445.17938	20406.50424	20123.97783	18848.71695	22106.51511	23072.08377	23518.41694	22722.44923	20212.04408	22276.29563	20073.23346	22637.24969	19845.45334	23045.52887	17699.37704	21418.71998	18253.1095	19720.53185	21563.9871	19531.7689	22757.15382	21178.3498	20752.19496	21194.52732	21473.61151	21489.89759	18758.36899	23372.94941	23020.31793	24023.40298	23144.64705	18906.1237	22217.417
1500	1800	17250.40171	18591.18272	15900.22995	18646.33024	14676.59262	19038.58238	15398.81493	14823.16903	17424.62057	15720.95604	17709.7163	16104.43368	16902.28091	17793.28381	17902.9013	17760.30243	15892.76946	19581.99011	18090.0638	20075.72343	18962.77817	18826.27511	19069.67369	18109.83457	18385.27051	18039.69086	18409.42359	15228.82786	17614.77637	15909.64897	16069.98392	18471.41562	16438.49672	17426.90074	16470.98213	16398.55687	17090.63227	17366.92479	18748.69826	15409.68989	18920.70316	18920.47873	20815.0458	19847.37134	18227.51921	19661.66023
1800	2100	15119.11232	15401.36487	12461.91139	15201.22665	11873.19835	16090.33492	12434.98547	12386.28746	15070.88219	13200.79427	15547.86031	13318.16699	13640.29071	13590.68006	14815.48858	15230.09972	13484.37351	16990.66447	15533.70616	17456.09726	16407.24281	17632.13337	15964.41829	14030.53272	15872.03406	12500.12609	14489.83633	11849.37762	16984.76284	12423.86253	14309.01773	13047.5741	12341.06488	15840.94186	14588.75117	12592.26598	13185.05196	15310.17789	15242.34939	12979.29654	17618.53484	16700.01421	17404.33492	16273.65702	17696.78906	16673.91599
2100	2400	13657.678	13193.69805	11419.40482	13384.73628	10598.70245	14644.9096	11602.34873	10394.52086	11789.39455	10674.02664	12999.5188	11560.66495	12042.06312	12277.33726	13048.23823	13598.45673	11851.04492	15399.42688	12746.59277	14517.47269	13621.399	15074.06613	14424.72529	12808.98253	12281.45463	12342.91157	12990.55312	11462.19398	15060.49816	11087.01712	12706.72025	11408.36533	10443.44484	14342.48451	11318.10078	10601.79937	12724.38345	13516.62671	13523.50027	12058.5793	14637.35185	13555.49566	15060.72499	13883.58718	14616.5957	14408.44799
2400	2700	11076.21613	11422.47198	9356.09196	10983.39317	9588.28557	12780.68971	9896.88615	9200.31206	10728.16438	9617.64124	11263.4943	10883.25559	9129.77536	10067.12836	11313.04206	11137.52773	10477.45942	13205.63678	12141.22721	12868.65039	11865.7943	13248.4894	11720.42475	10882.96157	11602.50117	10065.85525	11261.79151	9992.08283	13790.65292	10779.53703	10081.20095	10299.34846	9594.89358	12273.28113	9895.91201	9888.77822	9843.08446	10943.42718	11375.86784	10024.89794	13255.97704	11631.23296	12954.84235	12733.1479	15602.74772	12745.29302
2700	3000	9073.29701	9612.04211	9002.73171	9411.43327	10077.32914	11326.3588	9832.91401	7222.20286	8612.45325	7884.22964	9467.93797	9285.64	8969.5205	8361.59803	8811.20042	10489.16283	8747.25836	11153.07026	11239.39355	11539.99146	10613.62703	12728.09235	11034.56917	8830.96017	9270.15817	8808.97721	9119.06863	9390.58132	12575.90111	9208.21131	9132.5871	9178.8668	8195.81416	10505.42308	8516.92632	8802.52572	8954.07543	10765.44672	11151.73765	9481.26608	10739.58797	9142.12587	11344.83712	10874.52201	13898.15218	11011.66909
3000	3300	9205.48697	8179.87271	8154.5527	8435.70352	10139.32719	11246.13817	8930.39322	7357.54954	7651.4555	7076.6094	10078.34694	6875.14582	7988.25059	7863.48385	9259.30289	9679.56942	8317.35635	10427.4774	9435.55393	9892.20845	9619.98109	11699.83901	10708.6561	8514.95946	7862.87548	8866.24474	7306.03257	9372.50235	11075.19078	8624.78648	8463.03035	7185.44788	6808.35457	8889.49577	8017.20186	7230.386	7449.9996	9293.36934	9044.74114	8076.49658	9611.37427	8506.20139	10290.46832	8898.19123	11045.89632	9573.53905
3300	3600	9695.48375	8662.96397	8154.5612	7597.41487	8227.8928	11919.38558	8434.27103	6359.33074	7385.69569	7328.61491	7534.5675	7637.80433	6759.18018	7079.57544	8289.60248	9665.12874	8147.84328	10096.6124	8855.98557	9390.12803	8692.70364	11116.31417	8952.66099	8593.7814	7861.95701	8321.42079	7900.60888	8683.42003	10928.08474	8639.00255	6964.57206	8076.99344	7500.98159	8086.1945	7190.99253	6062.04251	7760.59906	7730.52547	9710.37181	7841.33374	8324.87921	7976.02393	9423.58028	9511.44091	11424.1014	9989.16927
3600	3900	7836.83626	8484.84776	6866.5583	7878.7335	8212.811	8471.25015	7928.69075	5608.82435	6558.65151	6327.15037	7089.1431	8153.11781	7334.81907	6991.90179	6619.62346	8615.43394	7640.69838	8708.45272	8905.23508	8604.98757	8538.6528	11567.60798	8777.47394	7217.15372	7210.91566	6627.32997	6496.76496	6713.92856	8569.89723	6637.29986	7202.02813	6431.37008	5981.73125	6589.88328	6676.49077	5654.24761	6895.3224	7141.97976	8278.35746	7961.45914	8102.34582	7658.33268	7970.94148	7428.99179	11982.32161	8170.93832
3900	4200	8171.63583	6761.76976	5792.19098	6026.61918	6014.68282	9960.50585	6562.8831	5569.26838	5657.89618	5872.00768	7637.67194	5147.86435	5546.58281	6564.73444	7050.68082	8021.05394	7270.49329	9080.55599	5947.45855	8000.51267	7067.52295	10408.56445	7727.41057	7357.73831	7227.07007	7448.08751	6109.16409	7514.45585	8427.79162	8100.06314	7307.30912	6798.43451	5792.80692	6988.32245	6925.31777	5655.16946	6479.22513	6884.96365	8394.3258	6512.00843	7689.23047	7748.49826	8344.9118	8362.88891	10763.47949	8318.6562
4200	4500	6362.37105	6442.93501	5668.70378	5781.65687	4826.0552	8303.00268	4851.14862	5522.66917	5860.72158	5579.81684	7698.89373	5110.7342	5204.82478	5595.40347	7468.43981	8154.58156	6368.49928	8117.20446	6314.28418	7719.60812	6209.54701	7962.13574	6897.52217	5937.58488	5385.9936	5744.24175	6184.86347	5557.88119	9259.19791	7582.26332	5366.8513	5824.21179	5437.47662	6218.54016	4750.84668	5765.01308	5752.39551	6337.70739	6074.46737	6120.06909	6843.28467	5337.64518	7130.41246	7310.31445	11648.02327	8030.49586
4500	4800	7129.13247	5162.4278	7006.73092	5295.54334	7344.34553	6936.44661	8171.50488	5051.84193	5060.42707	5491.55236	5761.10295	5756.06357	5338.78752	6408.13535	5892.57444	6767.76839	6234.08448	6870.54908	4829.50884	6891.66421	6301.14213	9177.17508	7247.60611	7802.99273	6203.13299	8086.01742	5544.92211	5389.49268	8393.15149	6522.71158	6498.82411	6408.507	5940.59401	6726.49339	7092.95688	4301.71339	5462.60723	7752.27976	7549.28418	6791.80116	7305.48572	7347.56456	7052.05995	6522.02711	12465.02262	7060.22871
4800	5100	6103.01537	6524.96482	5260.36121	6871.91573	5859.99146	6513.95392	5766.28816	6895.98997	5759.44718	5629.63263	5981.0366	5213.07799	6311.47479	5317.42316	5629.57744	5694.53912	5884.23857	7141.24971	6967.11301	6873.68544	6477.93545	6372.67271	5573.86943	6418.39711	5155.10509	5280.40169	5353.16402	6103.59344	7411.35339	6016.34022	5638.41864	5705.63729	5767.93175	6787.40466	4139.09905	5673.59058	5547.48424	6427.55568	6760.46662	5601.38426	7176.37882	4576.16848	7595.04856	6343.19376	8648.12882	6604.34097
5100	5400	5776.89526	4825.37403	5145.19727	6622.24457	7107.27603	7974.08732	5909.44658	5069.06487	4960.06536	4843.12562	7783.18671	4102.51833	4528.22267	5478.11682	7117.80839	7328.2782	6182.00955	5577.40604	4744.79617	7069.32986	7077.36301	10956.19908	7199.69042	7014.71719	7195.23781	4638.50168	4542.37022	5733.22073	7766.17147	4837.7639	5416.63157	7071.43417	4955.23846	6220.00942	5675.91641	3180.11467	6021.92032	5761.52381	7212.24479	5649.87354	8039.90343	6804.91064	6495.13673	6393.48193	6302.13281	6589.28016
