frame_start	frame_end	Left-Cerebral-White-Matter	Left-Cerebellum-White-Matter	Left-Cerebellum-Cortex	Left-Thalamus	Left-Caudate	Left-Putamen	Left-Pallidum	Brain-Stem	Left-Hippocampus	Left-Amygdala	CSF	Left-Accumbens-area	Left-VentralDC	Left-choroid-plexus	Right-Cerebral-White-Matter	Right-Cerebellum-White-Matter	Right-Cerebellum-Cortex	Right-Thalamus	Right-Caudate	Right-Putamen	Right-Pallidum	Right-Hippocampus	Right-Amygdala	Right-Accumbens-area	Right-VentralDC	Right-choroid-plexus	AirCavity	Skull	Vermis	Pons	CSF-ExtraCerebral	Head-ExtraCerebral	ctx-lh-bankssts	ctx-lh-caudalanteriorcingulate	ctx-lh-caudalmiddlefrontal	ctx-lh-cuneus	ctx-lh-entorhinal	ctx-lh-fusiform	ctx-lh-inferiorparietal	ctx-lh-inferiortemporal	ctx-lh-isthmuscingulate	ctx-lh-lateraloccipital	ctx-lh-lateralorbitofrontal	ctx-lh-lingual	ctx-lh-medialorbitofrontal	ctx-lh-middletemporal	ctx-lh-parahippocampal	ctx-lh-paracentral	ctx-lh-parsopercularis	ctx-lh-parsorbitalis	ctx-lh-parstriangularis	ctx-lh-pericalcarine	ctx-lh-postcentral	ctx-lh-posteriorcingulate	ctx-lh-precentral	ctx-lh-precuneus	ctx-lh-rostralanteriorcingulate	ctx-lh-rostralmiddlefrontal	ctx-lh-superiorfrontal	ctx-lh-superiorparietal	ctx-lh-superiortemporal	ctx-lh-supramarginal	ctx-lh-frontalpole	ctx-lh-temporalpole	ctx-lh-transversetemporal	ctx-lh-insula	ctx-rh-bankssts	ctx-rh-caudalanteriorcingulate	ctx-rh-caudalmiddlefrontal	ctx-rh-cuneus	ctx-rh-entorhinal	ctx-rh-fusiform	ctx-rh-inferiorparietal	ctx-rh-inferiortemporal	ctx-rh-isthmuscingulate	ctx-rh-lateraloccipital	ctx-rh-lateralorbitofrontal	ctx-rh-lingual	ctx-rh-medialorbitofrontal	ctx-rh-middletemporal	ctx-rh-parahippocampal	ctx-rh-paracentral	ctx-rh-parsopercularis	ctx-rh-parsorbitalis	ctx-rh-parstriangularis	ctx-rh-pericalcarine	ctx-rh-postcentral	ctx-rh-posteriorcingulate	ctx-rh-precentral	ctx-rh-precuneus	ctx-rh-rostralanteriorcingulate	ctx-rh-rostralmiddlefrontal	ctx-rh-superiorfrontal	ctx-rh-superiorparietal	ctx-rh-superiortemporal	ctx-rh-supramarginal	ctx-rh-frontalpole	ctx-rh-temporalpole	ctx-rh-transversetemporal	ctx-rh-insula
0	30	5.296973705291748	5.73445463180542	2.9980008602142334	-1.6680874824523926	-1.3430663347244263	9.523458480834961	0.7070395946502686	10.612464904785156	15.13357925415039	2.662808656692505	2.372800827026367	9.933506965637207	19.811912536621094	-63.774600982666016	6.54577112197876	16.976015090942383	7.467648983001709	11.113776206970215	-1.1384624242782593	28.28572654724121	15.810486793518066	-2.7306644916534424	0.1735454499721527	-2.4778428077697754	-3.1547577381134033	-50.26741409301758	7.304703712463379	7.016677379608154	-9.739748001098633	21.835662841796875	4.546055316925049	9.608762741088867	-10.606841087341309	-1.1699494123458862	7.040159225463867	18.0389461517334	22.61052894592285	4.797743320465088	-0.3002752959728241	5.8201775550842285	1.3825199604034424	1.3939826488494873	-0.38992372155189514	24.404146194458008	4.816675662994385	8.122014999389648	-3.564082622528076	-9.048327445983887	1.0560308694839478	-13.645875930786133	20.88810920715332	7.540207386016846	22.896202087402344	2.965592384338379	2.068805456161499	3.717726230621338	6.572953224182129	-0.5666919350624084	-2.1644365787506104	0.7231080532073975	20.90213394165039	-0.3793271780014038	-13.19095230102539	5.173240661621094	-9.046720504760742	-5.227508068084717	-17.209917068481445	31.76131248474121	3.3030223846435547	13.965847969055176	-8.282304763793945	5.468775272369385	8.44686508178711	12.371297836303711	-7.7057037353515625	26.489276885986328	0.6473202705383301	2.6096973419189453	-2.135791778564453	11.778923988342285	53.07304382324219	-5.697851181030273	0.7295117974281311	0.840505063533783	-5.04351282119751	15.753689765930176	6.00253963470459	0.1358059048652649	-2.6599631309509277	-1.038028359413147	-0.5016048550605774	-2.636361837387085	-0.08184483647346497	7.663836479187012	38.16285705566406	-10.181977272033691	-12.03443717956543	3.509751796722412	39.80063247680664	3.5998058319091797
30	60	464.5047302246094	604.6787719726562	1717.401611328125	1653.8016357421875	1889.2884521484375	2252.766357421875	1166.8616943359375	1390.260498046875	1589.521728515625	1125.3040771484375	154.75048828125	1778.694580078125	1286.8629150390625	2014.2755126953125	367.7162170410156	902.8171997070312	1459.2716064453125	1806.7882080078125	2628.73828125	2294.00732421875	280.93109130859375	1487.621337890625	1873.208984375	2434.41650390625	1214.6224365234375	5906.47705078125	197.65814208984375	256.44134521484375	2003.67822265625	1016.390869140625	1193.2860107421875	487.9840393066406	2270.079345703125	2024.1131591796875	2627.3916015625	2196.12646484375	2024.6661376953125	1185.7413330078125	2299.2705078125	2010.2581787109375	2528.75927734375	2049.883056640625	2314.372314453125	2598.198486328125	2971.684326171875	1664.9317626953125	2795.846435546875	1471.7667236328125	2842.57373046875	1573.079833984375	2839.99560546875	4446.89892578125	2065.524169921875	2782.3017578125	2278.362060546875	2709.953857421875	1417.354248046875	2553.9248046875	2150.617431640625	1693.1888427734375	2091.90771484375	2440.21826171875	2882.696044921875	873.3961181640625	3594.39599609375	2821.291015625	2028.3043212890625	3382.66748046875	2030.90234375	4243.02197265625	3814.5	1686.13330078125	2456.557861328125	1686.0589599609375	1717.635009765625	2050.43408203125	2743.675537109375	2301.60791015625	3177.495849609375	1878.5352783203125	1277.518798828125	2297.2705078125	2664.810546875	2117.27392578125	2588.981201171875	4061.1533203125	2230.284912109375	2832.910400390625	2118.00048828125	2591.302490234375	2958.688232421875	2466.320556640625	2500.315185546875	1769.5809326171875	2558.916748046875	2070.187744140625	2769.899658203125	1845.6588134765625	2603.201171875	2246.79541015625
60	90	2402.070068359375	5038.6552734375	9000.462890625	10530.1669921875	12578.4013671875	13434.5234375	6088.46240234375	7586.43310546875	8280.224609375	5388.15673828125	2684.130859375	15692.1162109375	6576.51953125	26874.1328125	2299.344482421875	4269.61865234375	8984.107421875	10988.5771484375	11426.634765625	13521.2998046875	4357.07177734375	9504.2490234375	5199.865234375	9148.71484375	5595.4140625	16746.62890625	1033.35595703125	1129.8394775390625	8230.826171875	7204.3291015625	4624.21533203125	2160.724609375	13803.626953125	8602.375	15596.7041015625	18762.787109375	8853.0732421875	8648.591796875	12952.5732421875	11064.259765625	11253.2294921875	13609.369140625	13663.1259765625	15106.7919921875	13259.0068359375	10933.5478515625	6602.81103515625	10938.3720703125	15230.8408203125	11518.431640625	15709.25390625	24904.224609375	13374.5009765625	12726.8681640625	12887.5380859375	13914.2783203125	12812.3642578125	15603.08203125	13659.345703125	11601.435546875	11345.1572265625	13022.7470703125	16077.505859375	6966.3740234375	19161.84765625	11872.5087890625	13765.646484375	15862.66796875	13714.318359375	17852.58203125	11987.5908203125	8977.1103515625	14144.0478515625	10481.1787109375	14097.90625	14088.2744140625	14504.6630859375	15244.234375	15676.1123046875	12008.1298828125	7727.02294921875	13800.650390625	15507.7421875	13288.7685546875	16075.26953125	26070.833984375	13086.0419921875	15543.4580078125	13368.5830078125	15588.478515625	13625.2451171875	14618.6962890625	13878.2421875	11775.8837890625	12119.1171875	12803.6513671875	20289.232421875	7662.853515625	20836.7734375	10689.0146484375
90	120	5163.35546875	10455.390625	20979.943359375	22113.8203125	30561.814453125	29322.890625	12273.99609375	15289.4052734375	18646.572265625	14698.455078125	5662.9482421875	25719.185546875	16696.4921875	40139.578125	5029.916015625	10860.41796875	20292.9921875	25248.599609375	27219.3515625	29549.16015625	10452.341796875	19211.265625	15413.2890625	16888.90625	16135.6376953125	38441.875	1928.0078125	2596.7001953125	16826.134765625	16854.451171875	8269.3076171875	4889.2138671875	30814.626953125	20026.1796875	37196.78515625	39882.46875	20828.763671875	20561.296875	29810.82421875	24855.85546875	27097.4375	30615.935546875	32251.330078125	33946.265625	30230.578125	25302.466796875	21442.39453125	24620.056640625	34649.609375	28262.228515625	35214.02734375	62074.8671875	30476.08984375	27977.294921875	30652.46875	33143.86328125	26508.298828125	34792.82421875	30641.212890625	27547.87109375	25754.306640625	29133.951171875	40730.45703125	16723.556640625	42525.3671875	25861.794921875	27279.966796875	27534.216796875	31840.146484375	41003.60546875	24610.423828125	19964.107421875	31597.5	25701.341796875	28950.560546875	34018.2890625	31982.5234375	32396.421875	31113.193359375	25713.890625	18621.52734375	30846.015625	33007.19921875	30368.576171875	35827.96484375	52882.0859375	30310.046875	33353.4453125	32128.119140625	33026.69921875	29732.09375	34152.3203125	31398.216796875	31086.59765625	28076.625	30483.49609375	39054.2109375	15234.7138671875	45891.078125	19579.380859375
120	150	8601.62890625	19308.47265625	35672.41015625	38658.171875	50010.203125	49757.37890625	19889.859375	27541.69140625	31118.779296875	25870.349609375	9442.5439453125	47938.92578125	24135.189453125	71366.453125	8061.7890625	19136.447265625	35092.6640625	42319.67578125	46350.23828125	50528.00390625	19859.962890625	31686.01171875	22368.46484375	25879.03515625	27238.4140625	58506.234375	3046.48291015625	4317.93994140625	30296.494140625	29022.947265625	10637.6865234375	8063.99755859375	53050.52734375	36800.30078125	63858.21484375	65191.37109375	32734.09375	34559.671875	51321.359375	44299.96484375	50876.765625	53572.703125	52666.83203125	59132.6875	51192.18359375	43191.953125	32188.744140625	45068.453125	58961.734375	49138.546875	58075.84765625	104563.9140625	53450.390625	55226.4921875	54809.30859375	55958.60546875	43389.2578125	60294.2109375	53510.3046875	52007.5703125	43922.90625	49902.00390625	71889.796875	30817.220703125	74331.9140625	37793.87890625	50476.29296875	50128.68359375	59729.2265625	72858.390625	35726.59375	34470.57421875	55616.39453125	45340.19140625	52913.28515625	57849.625	52450.91796875	57912.1484375	52648.65234375	46427.9296875	32653.46875	52761.39453125	54874.26171875	49602.74609375	63436.62890625	96990.5703125	52960.15625	56077.01171875	54804.921875	56006.421875	48396.1484375	59499.140625	54698.48828125	55183.65234375	45784.17578125	51182.19140625	71417.1015625	32949.2109375	81223.390625	35915.35546875
150	180	10569.1142578125	22343.599609375	41526.75	45146.83984375	58989.65625	61642.4140625	25180.013671875	29708.453125	35334.2421875	29943.037109375	8235.650390625	47520.4609375	32846.515625	86378.734375	10025.4443359375	21231.384765625	42245.1328125	49466.74609375	56041.41015625	63392.078125	19195.82421875	38326.04296875	23863.0703125	26626.947265625	30762.33203125	88485.65625	3027.943359375	4975.294921875	42233.125	35601.515625	8852.025390625	9608.23828125	60243.3671875	45501.34375	76026.78125	81259.4140625	38002.1328125	43250.33984375	61923.8984375	51184.08984375	58031.65625	64672.87109375	61576.84765625	69805.4609375	56813.9765625	52426.8046875	37645.78125	56780.73828125	68417.3046875	55069.70703125	71027.171875	116654.1484375	63196.8046875	57784.9375	65193.8203125	66370.765625	53557.40234375	71960.796875	63880.50390625	64105.01953125	52408.46875	60013.8125	83247.0	37644.15625	82268.375	42570.90625	60690.8203125	54472.32421875	68936.9140625	82762.375	38116.1796875	44316.796875	66800.96875	52515.12109375	63694.05859375	71340.9453125	60669.36328125	65170.65625	60392.0390625	56297.64453125	34012.16796875	66462.6640625	64329.1640625	59274.09765625	73325.2421875	111397.40625	62436.0078125	67013.1953125	65274.4140625	67231.6015625	50761.015625	71035.3046875	64703.94140625	67509.2109375	55181.7109375	61266.7578125	86862.390625	35806.6015625	88387.21875	38807.24609375
180	240	10940.947265625	24469.6171875	42920.4921875	48607.9765625	63964.72265625	63304.2734375	27973.369140625	30382.126953125	35918.6328125	30819.5234375	8221.9423828125	55193.21875	31919.29296875	68599.4609375	10438.14453125	22780.4375	43182.73046875	52492.40625	60435.40234375	65757.859375	23326.74609375	38867.67578125	27923.59375	29595.28515625	29992.048828125	62923.94921875	2735.49462890625	5307.12109375	37242.73046875	36069.4375	7226.00341796875	10337.361328125	62137.58984375	45314.90625	78256.015625	81785.453125	39759.5859375	46510.04296875	66145.65625	53314.88671875	58856.6875	68911.78125	61318.05078125	70893.125	63267.03515625	54066.2265625	38067.25	56326.02734375	68261.765625	61263.328125	72024.515625	124998.03125	66411.4140625	58870.22265625	67124.234375	68003.109375	54315.25390625	73735.328125	66620.25	67616.7265625	54132.3828125	61811.1171875	79762.78125	39748.171875	79855.6640625	43833.6875	64008.87890625	57389.41015625	73094.328125	85685.296875	33307.0	45704.40625	70794.6953125	54526.8203125	61546.0859375	75856.8046875	61717.3515625	67662.1640625	62304.24609375	58149.61328125	38827.69140625	68447.96875	66185.5234375	60355.50390625	73061.3984375	110157.5546875	68021.0078125	67361.75	67475.71875	69049.609375	53123.703125	74286.09375	67021.125	71843.90625	55212.75	64050.3046875	88852.296875	41486.40625	91549.8046875	41069.76953125
240	300	11304.2158203125	24470.060546875	41935.18359375	47174.63671875	62655.64453125	64266.84765625	26342.451171875	29454.431640625	35899.40234375	32553.82421875	6348.201171875	53115.89453125	31638.271484375	64305.53515625	11078.2177734375	22414.912109375	42158.984375	50456.625	58882.71875	64632.8203125	23268.892578125	37805.484375	31947.54296875	33556.234375	31548.865234375	63416.46875	2493.13232421875	5429.91796875	37670.49609375	35272.96484375	5410.13232421875	10462.921875	59294.43359375	44683.0625	72809.921875	78477.4140625	36591.11328125	45574.28515625	62715.875	52455.68359375	54879.58203125	65918.8984375	60541.37109375	67350.109375	58869.09375	53590.09375	38359.6171875	56832.1484375	65427.97265625	58844.04296875	69628.9921875	113809.5625	65255.046875	58207.2890625	66398.03125	65208.34765625	54452.13671875	71021.8203125	64265.5390625	66791.5234375	52483.11328125	60562.75390625	78580.515625	39635.11328125	76983.703125	43497.421875	60948.65234375	54769.79296875	70332.984375	80623.9765625	32047.6875	44361.7890625	68653.671875	55013.19921875	60330.671875	73381.5703125	60681.59765625	62829.8984375	60456.4140625	56282.90234375	37976.5390625	63858.359375	63121.4296875	63027.76171875	70225.109375	105570.0859375	64051.2421875	64433.15234375	67004.09375	65978.9140625	54915.640625	71584.46875	63798.62890625	71016.9140625	54274.88671875	62346.11328125	85484.8046875	41675.40234375	83622.40625	39959.40234375
300	360	11912.2138671875	24123.890625	38919.08203125	44793.10546875	59081.65625	59516.63671875	27719.166015625	29153.8359375	32856.05078125	34631.734375	4844.75341796875	50872.609375	30237.501953125	56315.859375	11593.7041015625	23242.537109375	39815.6015625	49625.4375	57324.84375	60709.77734375	24371.484375	34768.32421875	27949.939453125	31234.890625	31426.64453125	59013.328125	2241.592041015625	5717.31591796875	38020.00390625	32929.61328125	4961.6669921875	10401.9462890625	51266.75390625	40387.65234375	67636.90625	71179.5078125	37612.45703125	43442.8984375	58498.296875	48771.64453125	51099.3671875	60980.875	54835.515625	61712.59765625	56132.61328125	50160.8671875	34523.8359375	55513.74609375	60118.13671875	54149.2265625	62881.875	102161.28125	60842.828125	51733.1015625	60829.3203125	60319.33984375	49756.40625	65887.7578125	59787.7109375	62579.1171875	50201.77734375	55173.01953125	78284.171875	37681.4140625	69058.6640625	41388.85546875	54726.35546875	52079.390625	64561.8125	76635.875	32205.66796875	43063.7734375	62718.5546875	49920.93359375	51753.59375	68707.703125	56087.66015625	58953.26171875	56826.7890625	54943.5234375	39298.59765625	58889.51953125	57229.890625	57217.91796875	63479.29296875	92577.453125	60647.76171875	58182.03515625	60193.453125	60069.46484375	49654.4765625	66783.5078125	59228.08984375	65322.72265625	50642.32421875	57130.20703125	79578.0078125	38537.1328125	77617.1015625	39293.984375
360	480	11842.8662109375	23087.552734375	35305.62109375	41284.140625	51559.015625	52684.98828125	24821.4609375	27287.763671875	30373.99609375	32564.607421875	4460.5625	45061.33984375	29570.697265625	29874.86328125	11852.2548828125	21320.15625	36014.1328125	44570.1484375	47160.48828125	53406.6875	23409.00390625	31773.8828125	27561.32421875	32372.30859375	29089.095703125	35707.2421875	2012.6234130859375	5785.19482421875	31837.228515625	29215.115234375	3666.24951171875	10245.5107421875	47079.19140625	39038.2421875	60256.13671875	64632.04296875	33441.390625	39977.81640625	52244.11328125	44700.83984375	42636.62890625	53329.515625	49143.09765625	54047.87890625	50798.83984375	45776.73828125	33754.80078125	49322.1015625	52733.9453125	48165.81640625	55781.12109375	85235.1171875	54616.375	45846.05078125	53220.44921875	53536.51171875	44164.43359375	57437.60546875	52700.91796875	55999.9453125	45181.06640625	48855.80078125	67839.6953125	37556.13671875	56769.05859375	38932.21484375	49887.74609375	43482.38671875	56856.54296875	65067.9375	30620.37890625	40730.37890625	56228.7734375	45799.4765625	48996.83984375	60843.72265625	50492.4765625	51155.01953125	49293.234375	48366.171875	34809.97265625	52452.13671875	49694.73046875	50143.0078125	55203.27734375	76731.234375	53489.31640625	52275.38671875	53084.4921875	52699.84375	45873.7734375	58335.47265625	51995.86328125	59193.36328125	45481.6328125	50926.56640625	67539.109375	37642.328125	65842.59375	36425.91015625
480	600	12089.619140625	22508.931640625	30382.791015625	36965.45703125	43923.9375	46079.1640625	27165.783203125	24435.6875	26207.16796875	30794.2265625	2552.243408203125	43986.9609375	28015.861328125	17987.826171875	12014.7978515625	20871.158203125	30937.96484375	39771.83203125	40305.0703125	45935.92578125	25414.1328125	28858.876953125	25569.474609375	28336.263671875	27703.830078125	34501.1015625	1684.6103515625	5956.6240234375	27241.697265625	27539.376953125	2874.879638671875	9962.984375	39832.62109375	33540.453125	48775.64453125	52104.8984375	32235.79296875	35038.40625	43814.609375	38989.6953125	38241.765625	45414.53125	41649.14453125	45126.296875	46018.76953125	39136.625	31518.982421875	43385.49609375	43212.8828125	41764.62109375	46746.73046875	69129.7421875	45759.11328125	39137.30078125	45342.28125	44792.15234375	37290.6875	48407.09375	44526.65625	48268.68359375	39585.2578125	41839.1015625	56249.80078125	32177.73828125	45775.61328125	35155.50390625	41875.90625	36860.71484375	46775.20703125	53227.140625	28729.3515625	36227.40625	47946.1015625	40174.046875	40203.7890625	50176.359375	43020.8046875	42526.875	42471.5390625	41729.08203125	30149.02734375	42548.84375	42072.2265625	42683.21875	45937.875	62157.6796875	44479.015625	45141.08984375	45160.94921875	44834.08203125	38395.078125	48700.52734375	43831.8359375	50297.16015625	39870.9453125	43401.37109375	58452.12890625	34643.1796875	49622.12890625	32111.42578125
600	900	12296.6103515625	20817.908203125	23912.857421875	30542.408203125	32801.81640625	35281.12109375	25259.740234375	21713.025390625	21338.05859375	26708.03125	1345.172119140625	32703.46875	25166.12890625	15136.6630859375	12487.154296875	20505.169921875	24136.9375	32116.072265625	30107.939453125	35832.5703125	23773.8515625	22922.09765625	24293.53125	26457.3984375	24610.8515625	25159.31640625	1369.6324462890625	6222.78369140625	22272.93359375	23805.35546875	2018.7930908203125	9525.5087890625	30689.123046875	28533.69140625	36730.26171875	40004.20703125	27508.119140625	29449.302734375	33701.53515625	31869.416015625	30588.2734375	34545.0	32827.0078125	35134.1484375	35380.3046875	30413.5234375	25440.94140625	32130.029296875	33197.76953125	32847.59765625	36416.91015625	48751.6328125	35879.74609375	31336.63671875	34787.92578125	33971.8046875	29259.599609375	37373.7109375	34739.8515625	37240.828125	31858.298828125	32027.5390625	43390.1796875	29107.90234375	35734.3515625	29343.349609375	32132.177734375	30867.81640625	35147.90234375	39938.32421875	24144.701171875	29629.501953125	37050.33984375	32606.900390625	30063.98828125	38849.78125	33302.7421875	33417.19140625	33353.82421875	32613.099609375	26034.935546875	33660.4609375	32345.025390625	34370.0546875	35101.4765625	44448.10546875	35195.078125	33856.02734375	34198.3125	33835.44140625	29525.029296875	37673.5078125	33626.4765625	38923.6875	30762.333984375	33881.70703125	43863.734375	29791.4921875	36603.16015625	27748.416015625
900	1200	12711.330078125	19267.359375	17683.560546875	23474.1953125	22959.142578125	25297.58203125	23126.2578125	18593.978515625	16502.994140625	22432.064453125	1004.3590698242188	23310.75	21930.478515625	2108.40771484375	12797.5498046875	18065.861328125	18115.00390625	25016.73046875	21138.447265625	25312.845703125	21955.212890625	17159.57421875	20759.484375	19280.4140625	21744.287109375	16843.3671875	1124.7027587890625	6542.51318359375	17483.435546875	20280.10546875	1700.179931640625	9152.330078125	23224.306640625	22327.173828125	27906.32421875	29544.119140625	23868.154296875	22707.638671875	25584.8359375	25069.490234375	23157.837890625	25104.5859375	25384.798828125	26362.326171875	27730.08984375	23195.828125	21165.369140625	23730.71484375	24713.638671875	25698.982421875	27069.845703125	32367.583984375	26462.427734375	24325.509765625	25936.490234375	24852.234375	22826.73046875	27668.86328125	25760.58203125	28045.650390625	24457.029296875	23477.923828125	32019.486328125	24070.29296875	27812.853515625	23081.19140625	24408.533203125	23561.361328125	26481.9296875	29334.396484375	20818.85546875	23832.294921875	27512.37109375	25264.60546875	23959.333984375	29010.0859375	25732.802734375	24409.6484375	24653.7265625	24936.95703125	20890.578125	25096.74609375	24738.728515625	26744.263671875	25870.091796875	30786.6640625	25554.486328125	24429.966796875	24947.5703125	25899.33984375	22516.205078125	27747.96484375	25073.05078125	28849.919921875	23655.82421875	24784.509765625	34231.3671875	24269.82421875	26363.6640625	21725.71484375
1200	1500	12782.1064453125	17919.6640625	14247.931640625	19034.83203125	17351.25390625	19776.419921875	20526.998046875	15644.162109375	13746.0478515625	18749.58984375	217.51512145996094	16248.7587890625	19449.4453125	10232.4326171875	12957.45703125	17264.830078125	14411.7314453125	19634.7109375	16054.646484375	19483.42578125	20392.056640625	13895.1826171875	16552.65234375	11900.2216796875	19696.509765625	19634.15234375	1122.3463134765625	6861.98779296875	13563.587890625	17975.5859375	1860.423583984375	8933.482421875	18097.564453125	19033.2578125	22043.375	23077.3203125	18191.3046875	19784.78125	20873.8125	21013.484375	19210.6328125	20791.376953125	21251.369140625	22925.857421875	22657.82421875	19698.859375	17013.37109375	17577.375	20202.92578125	22213.51953125	22855.775390625	25935.72265625	20857.966796875	19327.412109375	21350.43359375	20418.248046875	18792.294921875	22443.224609375	21126.13671875	22424.646484375	20292.142578125	19408.365234375	24240.357421875	20571.89453125	22703.62109375	20234.369140625	20431.419921875	19112.50390625	21789.013671875	23804.763671875	17837.74609375	20081.50390625	22540.98046875	20857.5625	19811.791015625	23717.10546875	21650.95703125	20914.7890625	21240.873046875	20139.44140625	16100.5068359375	20365.67578125	20913.4609375	22209.583984375	21498.546875	24080.330078125	20501.61328125	20741.75390625	19930.638671875	21035.27734375	17100.927734375	22921.427734375	20331.494140625	23282.671875	19396.650390625	20075.7734375	25777.890625	20577.072265625	21427.28125	17484.54296875
1500	1800	12670.2060546875	16587.294921875	11828.083984375	15788.77734375	13636.3984375	16595.115234375	17673.46875	13542.7099609375	11523.4091796875	16481.5703125	1032.2109375	10185.421875	16673.72265625	4681.7890625	12764.02734375	16094.724609375	11865.5927734375	16284.017578125	11809.4716796875	15474.0029296875	18912.81640625	11614.5732421875	13756.1142578125	7460.0673828125	17603.6328125	10917.3623046875	948.3304443359375	7293.0029296875	11177.458984375	15768.76953125	2028.73046875	8827.623046875	16162.1650390625	16508.603515625	18846.25	19557.8203125	16091.189453125	17683.771484375	17842.30859375	18649.28125	16848.564453125	17443.396484375	18122.203125	19553.951171875	19820.0	16701.978515625	14250.515625	15337.7138671875	17533.376953125	19705.921875	19570.787109375	21758.076171875	17939.720703125	17775.134765625	17571.552734375	17914.642578125	14858.90234375	19496.78515625	18275.982421875	19347.470703125	17173.34375	16880.826171875	22177.755859375	16918.185546875	19248.869140625	17493.99609375	17711.013671875	16917.962890625	18597.048828125	20639.80078125	14325.8525390625	17239.396484375	19390.63671875	18096.54296875	17332.03125	20261.416015625	18265.50390625	18742.630859375	17821.068359375	17252.201171875	14684.7158203125	16587.271484375	17727.8515625	19092.87109375	18346.205078125	20883.111328125	17374.142578125	17476.88671875	16581.869140625	18089.466796875	15333.2529296875	19685.8125	17278.34765625	19710.404296875	16088.6513671875	17282.060546875	23953.013671875	17570.609375	21013.61328125	15771.3046875
1800	2100	12254.68359375	15795.44140625	9600.591796875	13748.501953125	11067.2998046875	13358.431640625	16682.447265625	11683.6806640625	9447.0712890625	14198.9638671875	836.3213500976562	9816.8759765625	14700.87890625	12942.9892578125	12129.8974609375	15341.5830078125	9801.796875	13643.6484375	11268.6337890625	13552.9169921875	15790.4541015625	9407.517578125	11889.3603515625	9375.8974609375	15268.40234375	17751.134765625	1043.787841796875	6989.8837890625	9187.6123046875	14673.828125	2103.011962890625	8674.1103515625	14576.1689453125	14283.71484375	17270.609375	18635.37109375	13932.3193359375	16333.8427734375	16514.166015625	16808.15234375	15472.06640625	16069.9970703125	16441.7421875	18221.37890625	17822.955078125	14905.666015625	13891.5361328125	12129.248046875	16105.26171875	18369.244140625	17775.75	20104.38671875	16514.546875	15610.3857421875	16011.34375	15617.0205078125	14379.142578125	17825.302734375	15490.05078125	17579.607421875	15783.0107421875	14751.419921875	19779.990234375	15524.7255859375	17243.138671875	15628.2001953125	16253.5302734375	14320.6376953125	16444.8125	18051.25	11826.646484375	15741.05859375	17775.900390625	15791.4453125	16238.7548828125	19650.275390625	17164.95703125	17239.73046875	15781.4462890625	15740.3408203125	14066.509765625	12896.20703125	16410.734375	16559.958984375	16922.759765625	19294.23828125	15951.888671875	16039.51953125	15280.3125	16448.107421875	12564.1787109375	18011.53125	15170.75390625	19020.072265625	15461.8984375	15821.771484375	22362.966796875	15537.7099609375	19199.828125	13825.912109375
2100	2400	12042.005859375	14379.3349609375	8599.3955078125	11737.0791015625	9415.26953125	11770.751953125	15994.51953125	10328.46875	9349.3349609375	12030.7568359375	1483.7784423828125	5090.55419921875	13764.1943359375	2363.446044921875	12036.5810546875	14284.99609375	8384.0517578125	11433.7451171875	9370.8330078125	11196.0791015625	15177.0498046875	8024.20068359375	10094.9296875	4079.122314453125	14145.6806640625	12700.5009765625	979.8932495117188	7294.9990234375	8675.71875	13385.958984375	2203.096435546875	8292.7353515625	13228.2626953125	12482.7939453125	15670.59765625	16307.7353515625	12761.7353515625	16048.25390625	14795.2392578125	15903.541015625	14857.8662109375	14909.078125	15876.0673828125	17854.85546875	16123.8291015625	13673.1083984375	8910.2314453125	11900.001953125	15647.5908203125	17531.4609375	17107.71875	18259.9921875	15434.9169921875	13270.9013671875	14162.1728515625	14579.73046875	14253.669921875	16199.9296875	14487.4365234375	16100.6318359375	14469.111328125	13454.3486328125	17569.52734375	13712.5888671875	17604.751953125	14061.0830078125	14219.3369140625	12884.130859375	14853.701171875	16827.90625	10534.7802734375	15433.3681640625	16729.78125	14866.697265625	13734.78515625	17736.24609375	16438.6640625	16094.9755859375	14654.60546875	14557.759765625	11755.8564453125	11109.361328125	15106.2783203125	16369.62109375	15766.1435546875	18716.466796875	14334.7138671875	14758.291015625	13505.830078125	15341.1435546875	12429.943359375	16076.873046875	13523.6962890625	16741.060546875	13790.6923828125	14652.232421875	18940.259765625	12691.8916015625	15899.7021484375	12964.51953125
2400	2700	11698.0791015625	12854.837890625	7630.22607421875	10257.083984375	8432.4501953125	11151.861328125	13700.283203125	9381.7119140625	7851.76611328125	10160.357421875	2078.293701171875	2728.278076171875	12416.28515625	1482.1549072265625	11735.103515625	12952.2841796875	7726.123046875	10075.166015625	7646.79931640625	10751.24609375	11637.3671875	8042.69482421875	8877.8271484375	3959.519287109375	12452.1640625	8318.82421875	899.4369506835938	7283.96337890625	7328.861328125	12086.482421875	2297.1064453125	8107.7109375	13247.685546875	12707.6806640625	13618.8232421875	15560.9462890625	11336.40234375	14741.71875	13639.9892578125	14949.4345703125	13479.267578125	13552.9443359375	15161.013671875	16218.0732421875	16393.2890625	12576.10546875	9602.6474609375	10575.759765625	14319.8076171875	16704.0390625	15745.93359375	15384.041015625	13995.3828125	12521.7919921875	13519.552734375	14137.0068359375	12387.640625	14947.0576171875	13066.04296875	14348.357421875	13357.2216796875	12703.9072265625	17537.90234375	11985.2783203125	15395.1884765625	12792.9609375	13804.7216796875	12843.05859375	13100.9580078125	16528.10546875	9004.505859375	14287.458984375	15315.154296875	14445.3828125	13958.123046875	16439.771484375	15669.248046875	15101.748046875	13363.6845703125	12999.5869140625	10220.6474609375	10984.0712890625	14556.4052734375	15184.681640625	14801.6943359375	15592.2216796875	13480.4521484375	15066.193359375	12080.3984375	13823.5419921875	10495.5615234375	14457.8193359375	12500.236328125	14738.453125	12479.6494140625	13336.3427734375	18921.46484375	10728.2041015625	13380.861328125	11550.423828125
