frame_start	frame_end	Left-Cerebral-White-Matter	Left-Cerebellum-White-Matter	Left-Cerebellum-Cortex	Left-Thalamus	Left-Caudate	Left-Putamen	Left-Pallidum	Brain-Stem	Left-Hippocampus	Left-Amygdala	CSF	Left-Accumbens-area	Left-VentralDC	Left-choroid-plexus	Right-Cerebral-White-Matter	Right-Cerebellum-White-Matter	Right-Cerebellum-Cortex	Right-Thalamus	Right-Caudate	Right-Putamen	Right-Pallidum	Right-Hippocampus	Right-Amygdala	Right-Accumbens-area	Right-VentralDC	Right-choroid-plexus	AirCavity	Skull	Vermis	Pons	CSF-ExtraCerebral	Head-ExtraCerebral	ctx-lh-bankssts	ctx-lh-caudalanteriorcingulate	ctx-lh-caudalmiddlefrontal	ctx-lh-cuneus	ctx-lh-entorhinal	ctx-lh-fusiform	ctx-lh-inferiorparietal	ctx-lh-inferiortemporal	ctx-lh-isthmuscingulate	ctx-lh-lateraloccipital	ctx-lh-lateralorbitofrontal	ctx-lh-lingual	ctx-lh-medialorbitofrontal	ctx-lh-middletemporal	ctx-lh-parahippocampal	ctx-lh-paracentral	ctx-lh-parsopercularis	ctx-lh-parsorbitalis	ctx-lh-parstriangularis	ctx-lh-pericalcarine	ctx-lh-postcentral	ctx-lh-posteriorcingulate	ctx-lh-precentral	ctx-lh-precuneus	ctx-lh-rostralanteriorcingulate	ctx-lh-rostralmiddlefrontal	ctx-lh-superiorfrontal	ctx-lh-superiorparietal	ctx-lh-superiortemporal	ctx-lh-supramarginal	ctx-lh-frontalpole	ctx-lh-temporalpole	ctx-lh-transversetemporal	ctx-lh-insula	ctx-rh-bankssts	ctx-rh-caudalanteriorcingulate	ctx-rh-caudalmiddlefrontal	ctx-rh-cuneus	ctx-rh-entorhinal	ctx-rh-fusiform	ctx-rh-inferiorparietal	ctx-rh-inferiortemporal	ctx-rh-isthmuscingulate	ctx-rh-lateraloccipital	ctx-rh-lateralorbitofrontal	ctx-rh-lingual	ctx-rh-medialorbitofrontal	ctx-rh-middletemporal	ctx-rh-parahippocampal	ctx-rh-paracentral	ctx-rh-parsopercularis	ctx-rh-parsorbitalis	ctx-rh-parstriangularis	ctx-rh-pericalcarine	ctx-rh-postcentral	ctx-rh-posteriorcingulate	ctx-rh-precentral	ctx-rh-precuneus	ctx-rh-rostralanteriorcingulate	ctx-rh-rostralmiddlefrontal	ctx-rh-superiorfrontal	ctx-rh-superiorparietal	ctx-rh-superiortemporal	ctx-rh-supramarginal	ctx-rh-frontalpole	ctx-rh-temporalpole	ctx-rh-transversetemporal	ctx-rh-insula
0	30	476.5137939453125	337.0475769042969	399.3526306152344	540.6578369140625	454.0785827636719	716.8031005859375	435.01007080078125	320.6483459472656	604.0234375	638.8336181640625	478.8560791015625	875.2159423828125	669.1364135742188	529.3546752929688	478.5452575683594	534.4013671875	458.18939208984375	492.1327209472656	571.4915161132812	635.2072143554688	880.07666015625	466.14617919921875	335.08660888671875	643.4658203125	920.6465454101562	358.0511474609375	36.610652923583984	104.180908203125	570.1503295898438	257.8734436035156	432.55322265625	62.021034240722656	618.7063598632812	910.464111328125	561.3956298828125	602.851806640625	417.16131591796875	394.1507568359375	471.9603576660156	256.3750915527344	467.87042236328125	427.6946716308594	361.88629150390625	615.2529296875	516.5873413085938	274.35699462890625	433.3758850097656	668.6886596679688	433.80535888671875	226.97572326660156	402.12322998046875	703.47802734375	378.87921142578125	485.01324462890625	487.2818298339844	615.2759399414062	840.8779296875	358.9524230957031	587.577392578125	423.5109558105469	403.7734680175781	473.9322509765625	7.809321880340576	52.3504524230957	924.179931640625	832.6690063476562	477.2791748046875	464.9637145996094	397.0451354980469	781.6644287109375	996.7824096679688	448.2489929199219	351.0148620605469	237.88414001464844	483.40399169921875	428.23553466796875	225.40284729003906	528.3966674804688	492.7218322753906	161.9438018798828	243.06103515625	453.76885986328125	520.7689208984375	72.04671478271484	220.9750213623047	640.0433959960938	396.6901550292969	328.5530090332031	437.1414794921875	575.0914916992188	632.206787109375	295.9013977050781	406.3937072753906	466.3458251953125	304.8398132324219	379.31402587890625	14.394057273864746	82.79988098144531	564.6455078125	776.5352783203125
30	60	7254.61962890625	6600.2392578125	7395.6181640625	8226.849609375	7452.95654296875	9194.8310546875	9069.9072265625	5050.08349609375	7818.69091796875	6918.34130859375	7612.51416015625	10498.849609375	8131.27783203125	6980.2685546875	7058.986328125	7428.359375	6348.447265625	7552.64892578125	8016.326171875	9404.4111328125	10257.7705078125	7578.70947265625	6976.18017578125	9091.576171875	8421.771484375	5740.0625	970.7764282226562	1801.8140869140625	8820.341796875	4474.18408203125	5731.77490234375	1359.9251708984375	9188.6025390625	10959.3291015625	7823.69873046875	10281.6572265625	6073.73974609375	7148.0302734375	7482.8984375	4747.84130859375	7264.150390625	7436.26220703125	5653.87109375	8827.521484375	6804.20751953125	4916.30615234375	6503.3369140625	9288.3671875	7547.46435546875	3308.98876953125	5771.6513671875	10289.134765625	6502.8193359375	9102.919921875	7450.9892578125	9620.8916015625	11255.44140625	5587.8798828125	7946.88623046875	7631.6337890625	6350.0537109375	6968.42333984375	560.13916015625	2352.434814453125	13869.5634765625	9775.5732421875	8296.3544921875	6623.28955078125	6402.80615234375	9529.1884765625	4557.43603515625	7133.6640625	5647.2294921875	3756.701904296875	6891.68798828125	7125.9765625	3119.129638671875	7909.59912109375	6663.90234375	3016.09765625	5725.28173828125	6974.76123046875	6282.72900390625	2122.06005859375	3398.902099609375	9706.79296875	5577.72412109375	6454.2314453125	6582.7666015625	7495.8203125	9092.5830078125	4365.4189453125	6221.8798828125	7096.42626953125	4203.46826171875	5509.771484375	480.2524719238281	2664.45947265625	9056.984375	8608.3037109375
60	90	16708.73828125	15634.15625	17078.03515625	19474.73046875	17814.82421875	22265.900390625	20001.021484375	11584.587890625	16918.359375	15981.57421875	17088.12109375	18900.912109375	16794.05078125	16488.919921875	16374.1689453125	18233.79296875	15153.69921875	17121.6015625	18054.904296875	20522.771484375	20906.392578125	17121.9375	16602.525390625	22849.765625	17815.578125	14197.0888671875	2792.152587890625	4094.706787109375	20360.01953125	10096.2646484375	12753.44140625	3297.1318359375	20657.04296875	23743.740234375	18421.3828125	22908.80859375	14627.6259765625	17521.564453125	17412.794921875	11222.677734375	15558.705078125	17490.025390625	13157.2705078125	20006.32421875	16200.6513671875	12084.1669921875	16243.8427734375	21064.583984375	17392.52734375	8957.3203125	13898.115234375	23467.486328125	14652.9775390625	20907.4609375	17028.779296875	21431.359375	26259.173828125	12745.0830078125	17719.728515625	16502.744140625	14164.9423828125	15728.3291015625	1277.9727783203125	6737.61962890625	28225.19140625	20874.833984375	19316.994140625	15421.76171875	14981.25	21972.142578125	7800.8798828125	16551.689453125	12951.5947265625	8569.8671875	14805.1083984375	16846.61328125	7513.58544921875	18442.7734375	15997.751953125	7441.23388671875	13460.5068359375	15844.4130859375	14629.9169921875	4815.42333984375	8872.072265625	21802.486328125	12575.1953125	13891.7451171875	14874.3955078125	17293.947265625	20134.9375	10190.6337890625	14276.7783203125	17144.6875	10112.51171875	12234.0673828125	1421.769287109375	6420.0400390625	23450.7109375	20335.5390625
90	120	27244.58203125	25303.783203125	27631.4453125	31865.982421875	28272.09375	35961.5859375	32761.2421875	18443.666015625	29034.93359375	24626.529296875	27431.685546875	28901.4296875	26537.66796875	25200.208984375	26393.828125	28425.73828125	24699.693359375	28486.115234375	29007.732421875	32173.515625	35048.390625	27891.2421875	25426.958984375	33350.75	25371.314453125	22287.916015625	4411.9658203125	6533.61572265625	33289.74609375	15042.212890625	20416.84375	5295.3935546875	31749.3671875	38502.265625	29102.958984375	36679.48828125	23292.73046875	27889.392578125	29148.302734375	17959.294921875	24230.4765625	28825.79296875	20944.8359375	32074.5625	26572.583984375	19482.58984375	24149.4609375	34214.6796875	28421.654296875	14226.921875	23536.1875	39420.76953125	23925.41796875	32713.998046875	27500.67578125	34901.69921875	42229.875	20963.365234375	28503.921875	26840.720703125	22635.140625	25431.240234375	2164.14697265625	11069.5947265625	45412.39453125	32620.109375	32776.65625	23968.482421875	24045.603515625	35666.25	11142.435546875	27021.9921875	21199.82421875	13279.501953125	23392.93359375	27054.125	11399.5595703125	28980.197265625	25600.11328125	12118.935546875	20487.841796875	25896.33203125	23538.322265625	8244.150390625	13877.1953125	36408.06640625	20186.701171875	20905.033203125	24082.599609375	27581.806640625	33074.6484375	16531.13671875	23434.90234375	27668.146484375	17109.171875	19940.9921875	2898.029052734375	10922.7578125	36748.45703125	31028.638671875
120	150	35745.4921875	33493.921875	36233.0703125	41333.37109375	35603.5234375	48734.015625	45702.484375	23387.359375	37087.1171875	31878.484375	35218.1796875	36863.3359375	31019.65234375	32196.39453125	34493.16015625	38045.2734375	32406.380859375	38367.9296875	39421.8984375	42085.61328125	42048.8515625	36586.875	34904.09375	40460.55078125	30493.107421875	31686.703125	5833.40625	8577.5498046875	43986.53515625	19140.447265625	26454.978515625	7084.0869140625	42400.953125	48240.45703125	39622.1328125	49347.328125	30916.083984375	37360.421875	38077.8046875	23283.158203125	30992.009765625	37483.53125	26920.900390625	41178.95703125	33569.93359375	26481.33984375	32662.677734375	44730.9375	38530.9453125	18148.513671875	30899.75	51873.92578125	31834.33984375	42107.21484375	36701.62890625	45326.53125	55462.34375	27582.341796875	36884.28515625	36239.73046875	30121.482421875	33797.3359375	3421.349853515625	17635.55078125	56795.36328125	41193.67578125	43668.78515625	32763.197265625	31380.45703125	47208.03125	10968.380859375	35518.48828125	27826.162109375	17333.876953125	29298.751953125	35186.2578125	14925.255859375	37567.875	32780.34375	15771.49609375	27297.40234375	33880.55078125	31134.62109375	11682.8759765625	18990.853515625	46779.5625	26307.5546875	28004.173828125	31759.072265625	36216.01171875	43918.54296875	21820.34765625	30691.919921875	35953.12890625	22154.396484375	25184.96875	3519.09814453125	14950.484375	46368.87109375	39983.94140625
150	180	37637.25390625	35695.0625	37589.03125	45301.4140625	39288.1875	51522.0859375	50035.375	25681.02734375	38763.3515625	36079.39453125	37649.55859375	41493.2265625	31101.83984375	35769.9921875	36265.8359375	40536.46875	34000.140625	39493.0703125	40701.2890625	45282.21875	45002.16796875	38054.87890625	36438.484375	42314.0234375	29785.091796875	33797.84375	6176.7177734375	9005.685546875	45381.140625	18969.060546875	27834.931640625	7647.43994140625	45736.80078125	50216.2265625	41337.99609375	50940.65625	33042.1953125	38715.046875	40916.9921875	23679.1875	32088.767578125	38982.44921875	28001.087890625	43997.34375	34164.4765625	27657.140625	31260.837890625	46476.2421875	39334.72265625	18795.990234375	33951.3125	55939.515625	34182.01953125	45800.94140625	38671.2109375	47763.2265625	57286.50390625	29233.515625	38988.40625	38204.4296875	31561.537109375	36216.4609375	3270.6328125	17839.5546875	59876.87890625	43901.9296875	44341.7890625	33815.70703125	32946.76953125	50767.9765625	9517.0380859375	37613.69921875	29268.9296875	17603.255859375	31644.73046875	36550.91015625	15762.56640625	38895.8359375	33013.30859375	16872.693359375	28768.080078125	35983.94921875	32153.328125	14119.6181640625	20599.4375	49974.41796875	28313.564453125	28784.9765625	34031.5	38874.3515625	45437.08203125	23484.310546875	32636.720703125	38612.54296875	23715.134765625	26612.751953125	3659.36865234375	16006.3564453125	47147.703125	41831.58203125
180	240	37198.484375	35345.0390625	36957.8984375	44480.8828125	38461.890625	50145.015625	46020.48828125	25436.58203125	37558.53515625	34917.00390625	37264.21484375	38795.05078125	30112.142578125	34128.21484375	35837.5	40372.24609375	33174.81640625	39390.421875	40846.57421875	43550.734375	43944.54296875	37741.953125	37513.16015625	42778.796875	29745.6484375	33307.453125	6370.20703125	9170.2841796875	45523.8359375	19143.82421875	27530.6640625	7860.5625	45191.83203125	48837.796875	41255.94921875	49117.4140625	32554.900390625	38678.796875	40774.3515625	23145.36328125	31215.486328125	38228.3671875	27251.654296875	42822.359375	34125.79296875	27496.65625	31544.271484375	45825.1328125	39616.2421875	19224.666015625	33526.46484375	53046.91015625	33983.63671875	42396.39453125	37858.11328125	46064.21875	56696.76953125	29280.09765625	38292.8828125	37695.2265625	30766.458984375	35624.3515625	3466.08349609375	17825.78515625	57110.01953125	43126.6171875	44052.96875	31921.296875	32968.80078125	48965.95703125	8444.244140625	37426.875	28506.439453125	17705.8984375	29736.962890625	34747.02734375	15673.833984375	38041.93359375	32272.517578125	16355.0595703125	28025.03125	35442.34375	31609.953125	14133.7744140625	20846.767578125	48674.4375	28137.62109375	28844.611328125	33532.12890625	38161.41015625	44178.59765625	23007.404296875	32158.73828125	38272.0	23945.416015625	25711.220703125	4153.837890625	16322.1767578125	48623.63671875	40932.70703125
240	300	35122.6484375	34217.3984375	34243.73828125	43772.29296875	37330.796875	49110.5390625	45103.9375	24050.900390625	37572.71875	35381.27734375	35724.6875	37578.43359375	28748.990234375	33961.92578125	33762.90625	38027.4140625	30828.642578125	38074.62890625	40042.59375	42009.2421875	40485.08203125	36814.1484375	36950.87109375	40590.42578125	28842.1328125	33250.68359375	6195.1171875	9124.6630859375	41513.12109375	18023.951171875	25990.923828125	7910.8447265625	42613.41796875	44296.8046875	39098.125	45631.83984375	28953.0078125	37295.99609375	38162.14453125	21548.494140625	28590.06640625	34922.96875	25751.748046875	39459.4453125	30673.04296875	26061.01171875	29785.533203125	41632.06640625	37232.640625	17962.662109375	31663.15625	49201.515625	33251.25	39874.98046875	35975.2890625	44177.71875	50794.91015625	28279.21875	35786.76953125	35606.6953125	29588.447265625	34629.8984375	3808.772216796875	17658.564453125	51350.0234375	40030.828125	40806.36328125	30494.013671875	31523.76171875	46205.375	7390.22265625	34187.78515625	26329.08203125	16482.6796875	28187.681640625	31137.0234375	15117.4736328125	35417.19140625	30356.62890625	15349.11328125	25976.884765625	32716.701171875	29863.990234375	14123.115234375	19508.220703125	44945.4609375	26119.630859375	26519.24609375	31678.068359375	36323.26953125	42327.78515625	21920.724609375	30520.22265625	36034.640625	23073.4609375	24200.365234375	4055.578125	16229.7685546875	45037.76953125	38033.99609375
300	360	32864.73046875	32695.150390625	31677.216796875	42273.62109375	34806.96875	46896.52734375	41788.2578125	23103.521484375	35258.22265625	33952.140625	34663.515625	35560.91796875	26517.87109375	33029.9609375	31701.3203125	35758.56640625	28405.673828125	37056.75	37984.9921875	38527.296875	39195.42578125	34079.28125	34642.5703125	38834.76953125	26518.669921875	33526.10546875	6308.685546875	9133.6796875	38447.45703125	17462.220703125	24537.134765625	7889.119140625	38762.54296875	40788.81640625	37419.28515625	41705.40625	26270.791015625	34860.51953125	36086.91015625	20027.703125	27197.49609375	30887.056640625	23999.607421875	35674.64453125	29112.009765625	24660.314453125	26905.3671875	38893.1171875	34942.0390625	18076.5234375	30797.798828125	43798.765625	31361.826171875	35725.984375	34146.609375	40861.8984375	48927.79296875	27121.869140625	33628.25390625	33421.63671875	27832.359375	32623.298828125	3686.20849609375	17235.939453125	46886.58984375	38128.90234375	38131.6953125	28024.220703125	29021.142578125	41182.15234375	7170.92138671875	32357.6640625	23915.591796875	15839.3779296875	26993.837890625	26830.8984375	14264.9091796875	33831.56640625	28198.357421875	13949.52734375	25494.677734375	30503.78515625	26811.783203125	14218.62890625	19135.021484375	41186.421875	24593.921875	23755.646484375	29562.490234375	33753.7734375	39397.65625	20644.3515625	28797.25390625	33765.8203125	21726.943359375	21831.23046875	4516.50634765625	15776.1748046875	44364.66796875	36310.87890625
360	480	29376.890625	30457.29296875	27593.8984375	39346.3984375	31341.427734375	41081.38671875	37797.3203125	21093.06640625	32173.048828125	32013.294921875	31959.767578125	32159.0078125	24563.14453125	31287.923828125	28191.58984375	31748.23828125	25012.75390625	33842.26171875	35236.40625	34244.05859375	35071.17578125	29184.77734375	31410.765625	34200.265625	24663.90234375	30368.1328125	6281.4990234375	9006.986328125	32665.8359375	15651.10546875	22082.103515625	7757.7236328125	34510.66015625	34390.28515625	32966.0	35619.3828125	24186.572265625	31233.17578125	31359.9140625	17375.3359375	23479.310546875	26130.818359375	21736.490234375	31134.06640625	25551.91015625	22129.677734375	23407.076171875	33974.4140625	31627.927734375	16032.85546875	27595.80078125	38273.8828125	28581.478515625	31344.494140625	30769.91015625	35348.046875	42010.2421875	24975.865234375	29814.25390625	29235.275390625	25158.587890625	29365.69921875	3629.390625	16401.439453125	39652.62890625	33736.296875	32573.416015625	25872.2109375	25650.662109375	35455.30859375	6947.119140625	28671.4921875	20390.88671875	14214.4716796875	24272.365234375	21831.904296875	13273.357421875	29411.513671875	24463.458984375	12216.3564453125	21408.79296875	27006.6015625	23835.21875	14006.693359375	17226.291015625	35319.67578125	22116.859375	21209.5859375	26584.2578125	30090.330078125	34849.0234375	18535.9609375	26127.62109375	29848.654296875	19731.302734375	19187.2265625	4392.546875	15068.5244140625	38837.04296875	32634.42578125
480	600	25646.95703125	26882.06640625	23280.193359375	35666.5546875	27767.263671875	35750.05859375	31522.908203125	19222.328125	28195.30078125	29267.646484375	28841.599609375	28574.765625	21107.228515625	28911.263671875	24316.576171875	27172.1484375	21564.271484375	30271.587890625	31375.5546875	29414.283203125	30261.396484375	25150.52734375	29031.62109375	27892.517578125	21851.599609375	29122.130859375	6016.314453125	8874.984375	26840.109375	14202.4306640625	19301.015625	7659.0283203125	28690.95703125	29225.294921875	28624.421875	29022.68359375	19731.908203125	26886.544921875	26982.267578125	14848.423828125	20331.544921875	20500.50390625	19320.478515625	25522.474609375	22102.24609375	19441.68359375	19886.943359375	28621.205078125	27373.8203125	15295.8828125	23984.47265625	29994.74609375	25362.357421875	26209.7265625	26744.326171875	29847.208984375	34183.0078125	22737.7109375	25801.298828125	25094.865234375	21996.642578125	25422.84765625	3705.697509765625	15487.890625	32344.591796875	28901.880859375	27533.0859375	22866.302734375	22191.138671875	29673.490234375	5943.4072265625	24887.65234375	16391.8828125	12638.931640625	21809.595703125	16178.35546875	12521.2529296875	25341.390625	20831.853515625	10406.9384765625	19206.8046875	23485.21875	20663.083984375	13527.12109375	15529.19921875	28802.38671875	18998.640625	19547.40234375	22559.60546875	26333.4140625	29798.75	16245.154296875	23059.92578125	25204.099609375	17221.263671875	16931.83984375	4407.1689453125	14219.6533203125	33413.30859375	28629.837890625
600	900	21768.37109375	22862.41796875	19082.126953125	30853.78515625	23332.798828125	29900.587890625	27289.927734375	17650.39453125	23258.046875	25643.359375	24764.244140625	21865.189453125	18930.328125	24347.861328125	20236.310546875	21283.3125	18072.580078125	26325.201171875	27612.306640625	24256.412109375	25729.5	18066.09375	25280.455078125	21816.91796875	19051.71875	24678.169921875	6397.00244140625	8862.7509765625	20945.548828125	13342.90625	16296.5869140625	7703.76025390625	22755.431640625	23210.724609375	23954.8828125	22216.759765625	15614.169921875	21909.546875	21378.509765625	12074.4619140625	17790.158203125	14960.0439453125	17046.79296875	20077.982421875	18075.509765625	16521.71875	16076.130859375	22757.96484375	22670.14453125	14648.923828125	20760.390625	22278.01953125	21347.958984375	21410.603515625	22332.06640625	23804.880859375	26804.314453125	20118.64453125	21500.251953125	20251.658203125	18992.642578125	21346.66796875	4121.17236328125	14150.322265625	24537.453125	24099.25	21066.376953125	19966.96875	18016.146484375	22389.029296875	6418.86474609375	21154.59765625	12625.109375	10920.1083984375	19123.142578125	11414.1376953125	11481.69921875	20859.9921875	17070.955078125	8697.7568359375	15554.8642578125	19777.16015625	17173.90625	12686.53515625	14035.4306640625	22688.98046875	15933.302734375	17362.779296875	18647.51171875	22075.806640625	24266.74609375	13807.6220703125	19690.892578125	20238.544921875	14292.0380859375	14098.3349609375	4652.8125	13668.76953125	26854.294921875	23527.703125
900	1200	18611.7265625	18650.388671875	16145.79296875	25677.5625	19643.724609375	24608.134765625	23703.55859375	15790.435546875	18481.572265625	21365.421875	21023.84765625	18035.951171875	17029.646484375	20758.287109375	17043.6875	17174.693359375	15995.5908203125	22616.37890625	23671.48046875	20164.07421875	21561.9375	13691.5107421875	20534.083984375	17036.759765625	16678.623046875	20364.849609375	6558.1494140625	8888.240234375	15743.203125	12944.8046875	13890.38671875	7924.4677734375	18310.712890625	18834.96484375	20294.3828125	17128.853515625	12472.2216796875	17840.380859375	17273.46875	9951.2451171875	15131.923828125	11272.341796875	14619.8955078125	16016.4833984375	15017.5400390625	14159.427734375	13412.486328125	18566.955078125	19005.6328125	13679.3076171875	17419.705078125	17012.8828125	17793.408203125	18055.2890625	18793.283203125	18923.61328125	20961.947265625	17396.806640625	17885.625	16804.06640625	16286.9658203125	17772.236328125	4456.31884765625	13350.671875	20150.85546875	20136.767578125	16796.228515625	18446.23828125	15006.7451171875	17981.759765625	6549.353515625	17931.3046875	10253.576171875	9605.865234375	16872.18359375	8735.8916015625	10775.4912109375	17046.619140625	14095.3818359375	7662.025390625	13813.0126953125	17306.880859375	14539.07421875	12379.6953125	12432.7646484375	17513.3203125	13214.1650390625	15990.8994140625	15433.470703125	18535.888671875	20643.470703125	11992.607421875	17095.056640625	16201.021484375	12341.7197265625	11980.833984375	4868.6435546875	13496.828125	21279.01171875	19904.763671875
1200	1500	16839.296875	16339.2685546875	14684.5927734375	22293.1953125	16783.478515625	21634.59765625	20607.40234375	15076.673828125	15552.103515625	18032.966796875	18753.38671875	15093.068359375	15745.6044921875	18081.146484375	15309.482421875	15134.6865234375	14756.2353515625	20175.505859375	20972.912109375	17731.19140625	18941.412109375	11024.90234375	18190.919921875	15352.8466796875	14859.828125	18278.58984375	6774.958984375	8944.75390625	13321.2890625	12436.69140625	12618.2578125	8108.16845703125	15980.3427734375	17168.689453125	18362.943359375	14570.9873046875	11162.74609375	15447.3427734375	15479.8388671875	8889.1162109375	13498.5458984375	9541.326171875	13478.2490234375	13636.8642578125	13333.763671875	12723.7421875	11957.6064453125	16248.5888671875	17050.83203125	12909.732421875	15744.140625	14338.31640625	15962.7314453125	16423.31640625	16970.626953125	16419.482421875	17496.48046875	15913.189453125	15986.021484375	14978.5498046875	14725.251953125	15849.5126953125	4751.01904296875	12767.001953125	18304.064453125	17589.310546875	13845.3193359375	17186.890625	13309.220703125	15831.751953125	6626.5634765625	15523.40234375	9385.126953125	9130.7890625	14703.662109375	7663.8359375	10410.03125	14773.29296875	12757.0634765625	7335.27880859375	12306.4814453125	16135.583984375	13208.4345703125	11749.353515625	12006.8974609375	14532.5400390625	11836.1376953125	15404.77734375	13710.7529296875	16898.056640625	18464.849609375	11073.6787109375	15661.7255859375	14095.99609375	11211.654296875	10964.849609375	4951.45166015625	13272.0107421875	18137.001953125	17395.470703125
1500	1800	15380.6416015625	14629.908203125	13646.767578125	19507.140625	14794.06640625	19217.48828125	18799.458984375	14084.6171875	13471.4189453125	16884.138671875	16489.576171875	12619.93359375	14500.474609375	16173.2255859375	13853.234375	13924.0234375	14022.0947265625	17732.923828125	18455.14453125	16024.3515625	16782.48828125	9528.958984375	16348.361328125	12616.31640625	13341.9619140625	15471.5732421875	6772.126953125	8960.140625	11683.984375	12603.6669921875	11672.5126953125	8231.40625	14958.1708984375	15540.9794921875	17062.306640625	12908.439453125	10418.1259765625	13735.294921875	13982.9248046875	8066.67431640625	11764.0703125	8310.0390625	12606.5341796875	11955.9033203125	11764.6494140625	11851.9326171875	11244.9443359375	14615.3447265625	15799.541015625	12154.96484375	14203.115234375	12549.2353515625	14530.9501953125	15162.1279296875	15584.5087890625	14719.2109375	15358.861328125	14677.51171875	14571.501953125	13612.0849609375	13679.2099609375	14670.23046875	4863.107421875	12871.744140625	17007.537109375	15940.5458984375	11694.537109375	16389.337890625	11648.77734375	14008.482421875	6794.76953125	13981.673828125	8956.0810546875	8616.154296875	13616.365234375	7194.14306640625	9904.33984375	12832.783203125	11432.7685546875	7371.28759765625	11086.5615234375	15381.03515625	12141.693359375	11484.1142578125	11642.1982421875	12675.861328125	10561.2919921875	14894.04296875	12107.3544921875	15681.0048828125	17345.859375	10150.9921875	14217.8486328125	12341.7421875	10467.1982421875	10271.03125	5256.1513671875	12674.0830078125	16886.681640625	15816.748046875
1800	2100	14034.1455078125	12763.9150390625	12536.474609375	17074.701171875	13303.3779296875	16537.794921875	16705.15625	13214.2265625	11906.4345703125	14343.8388671875	14941.587890625	10784.689453125	13525.94140625	14824.505859375	12623.333984375	12679.458984375	13131.748046875	16302.8349609375	16707.06640625	14517.11328125	14990.0947265625	8403.490234375	13513.0703125	11509.8310546875	12461.607421875	14055.20703125	6673.02197265625	8723.904296875	10061.794921875	12172.361328125	10689.6142578125	8221.32421875	13495.78515625	14309.466796875	15671.2021484375	11252.1708984375	9460.5087890625	12246.3251953125	12687.3076171875	7430.18310546875	11067.5107421875	7192.4638671875	11645.451171875	10433.8544921875	10545.173828125	10860.9873046875	10432.02734375	13273.349609375	14668.9501953125	11223.6728515625	13021.8408203125	11071.361328125	13016.62890625	13361.7666015625	14121.5908203125	12741.68359375	13257.7099609375	13598.7548828125	12980.220703125	12009.2880859375	12523.8876953125	13255.3369140625	4700.80859375	11760.642578125	15327.5244140625	14450.08203125	10139.484375	15519.5224609375	10334.6064453125	12804.8681640625	6173.91845703125	12455.16015625	8618.875	8323.51953125	12361.8759765625	6897.75439453125	9351.3994140625	11318.4716796875	10562.2744140625	7273.732421875	10635.6328125	14306.3984375	11209.53125	11068.7353515625	10988.66796875	11483.7646484375	9882.353515625	13892.1201171875	10982.2431640625	14122.4169921875	16215.298828125	9497.044921875	12991.505859375	10777.2470703125	10014.6728515625	9635.27734375	5164.34423828125	11943.8701171875	14957.671875	14290.2158203125
2100	2400	12889.1591796875	11415.181640625	11544.962890625	14889.2431640625	11876.189453125	14939.201171875	15408.9384765625	12013.0908203125	10462.9189453125	12818.99609375	13182.62890625	9758.6689453125	12211.31640625	12603.43359375	11550.240234375	11302.3056640625	12445.5224609375	14278.7060546875	15074.7412109375	12829.7802734375	14058.70703125	7364.97021484375	11955.3369140625	10536.369140625	11105.0302734375	12068.8876953125	6581.5419921875	8485.255859375	9221.83984375	11984.525390625	9876.6376953125	8122.95556640625	12253.5576171875	13101.72265625	14445.990234375	10089.904296875	8737.234375	11220.9658203125	11190.8515625	6824.89013671875	9690.6962890625	6418.4912109375	10666.8359375	9411.5244140625	9583.1953125	10033.259765625	9463.9677734375	11797.4228515625	13206.302734375	10989.0732421875	11786.2080078125	9937.751953125	11746.822265625	12706.884765625	12999.16015625	11615.1083984375	11914.9111328125	12329.2578125	11927.400390625	11108.1455078125	11554.044921875	12083.7548828125	4720.95361328125	11299.3056640625	14895.07421875	12748.271484375	8843.736328125	14440.61328125	9322.400390625	11389.6435546875	6219.1787109375	10996.1298828125	8255.732421875	7942.291015625	11106.505859375	6831.26513671875	8927.6337890625	10098.826171875	9738.3173828125	6996.1640625	9489.73046875	13292.751953125	10556.24609375	10971.3095703125	10921.62109375	10112.2177734375	9176.01171875	12993.04296875	9985.3359375	12979.5048828125	14831.083984375	8875.3818359375	11949.1982421875	9532.2900390625	9482.7216796875	9004.8115234375	4977.85986328125	11189.5810546875	14191.1591796875	12992.2001953125
2400	2700	11885.294921875	10344.486328125	10795.8837890625	12864.4130859375	10705.1396484375	13550.5458984375	13762.228515625	11099.7236328125	9691.279296875	11554.7919921875	12135.2939453125	8090.44970703125	11359.0185546875	12625.3994140625	10677.7841796875	10710.0185546875	11727.6044921875	13317.875	13584.494140625	11589.2001953125	12036.7802734375	6525.1298828125	10716.9580078125	9971.271484375	10074.13671875	11308.5498046875	6652.8876953125	8204.6533203125	8216.20703125	11533.5146484375	9190.2587890625	8020.50537109375	11506.1630859375	12821.47265625	13534.197265625	9167.98828125	8063.44921875	9760.513671875	10334.5673828125	6245.96337890625	8811.296875	5897.9560546875	10156.9609375	8182.65283203125	8381.9423828125	9174.3212890625	8606.212890625	10642.25390625	12433.4580078125	9939.1318359375	10851.1240234375	8534.501953125	10722.6572265625	11714.6806640625	12018.96484375	10339.08203125	10837.658203125	11453.9658203125	10880.2509765625	10076.1201171875	10644.8154296875	11139.6044921875	4023.949951171875	10633.9384765625	13705.3818359375	11533.1376953125	8268.1845703125	14211.203125	8554.1904296875	10184.1279296875	6921.37939453125	10239.0	8031.39208984375	7792.6904296875	10297.873046875	6618.17578125	8817.6923828125	9143.759765625	8826.884765625	6989.40966796875	8549.1435546875	12835.111328125	9895.4267578125	10338.51953125	10113.1123046875	8907.8515625	8552.953125	12862.60546875	9107.009765625	12079.6435546875	13620.4609375	8200.65625	10949.3173828125	8408.3115234375	8889.73828125	8574.240234375	4920.10546875	11168.75390625	11693.9560546875	11667.3134765625
