frame_start	frame_end	Left-Cerebral-White-Matter	Left-Cerebellum-White-Matter	Left-Cerebellum-Cortex	Left-Thalamus	Left-Caudate	Left-Putamen	Left-Pallidum	Brain-Stem	Left-Hippocampus	Left-Amygdala	CSF	Left-Accumbens-area	Left-VentralDC	Left-choroid-plexus	Right-Cerebral-White-Matter	Right-Cerebellum-White-Matter	Right-Cerebellum-Cortex	Right-Thalamus	Right-Caudate	Right-Putamen	Right-Pallidum	Right-Hippocampus	Right-Amygdala	Right-Accumbens-area	Right-VentralDC	Right-choroid-plexus	AirCavity	Skull	Vermis	Pons	CSF-ExtraCerebral	Head-ExtraCerebral	ctx-lh-bankssts	ctx-lh-caudalanteriorcingulate	ctx-lh-caudalmiddlefrontal	ctx-lh-cuneus	ctx-lh-entorhinal	ctx-lh-fusiform	ctx-lh-inferiorparietal	ctx-lh-inferiortemporal	ctx-lh-isthmuscingulate	ctx-lh-lateraloccipital	ctx-lh-lateralorbitofrontal	ctx-lh-lingual	ctx-lh-medialorbitofrontal	ctx-lh-middletemporal	ctx-lh-parahippocampal	ctx-lh-paracentral	ctx-lh-parsopercularis	ctx-lh-parsorbitalis	ctx-lh-parstriangularis	ctx-lh-pericalcarine	ctx-lh-postcentral	ctx-lh-posteriorcingulate	ctx-lh-precentral	ctx-lh-precuneus	ctx-lh-rostralanteriorcingulate	ctx-lh-rostralmiddlefrontal	ctx-lh-superiorfrontal	ctx-lh-superiorparietal	ctx-lh-superiortemporal	ctx-lh-supramarginal	ctx-lh-frontalpole	ctx-lh-temporalpole	ctx-lh-transversetemporal	ctx-lh-insula	ctx-rh-bankssts	ctx-rh-caudalanteriorcingulate	ctx-rh-caudalmiddlefrontal	ctx-rh-cuneus	ctx-rh-entorhinal	ctx-rh-fusiform	ctx-rh-inferiorparietal	ctx-rh-inferiortemporal	ctx-rh-isthmuscingulate	ctx-rh-lateraloccipital	ctx-rh-lateralorbitofrontal	ctx-rh-lingual	ctx-rh-medialorbitofrontal	ctx-rh-middletemporal	ctx-rh-parahippocampal	ctx-rh-paracentral	ctx-rh-parsopercularis	ctx-rh-parsorbitalis	ctx-rh-parstriangularis	ctx-rh-pericalcarine	ctx-rh-postcentral	ctx-rh-posteriorcingulate	ctx-rh-precentral	ctx-rh-precuneus	ctx-rh-rostralanteriorcingulate	ctx-rh-rostralmiddlefrontal	ctx-rh-superiorfrontal	ctx-rh-superiorparietal	ctx-rh-superiortemporal	ctx-rh-supramarginal	ctx-rh-frontalpole	ctx-rh-temporalpole	ctx-rh-transversetemporal	ctx-rh-insula
0	30	323.8143310546875	244.78578186035156	311.21502685546875	411.14300537109375	414.5776062011719	499.68621826171875	265.2559814453125	311.6178283691406	343.1798400878906	502.6348571777344	270.116455078125	466.6216125488281	342.58465576171875	470.4685974121094	281.64263916015625	245.3865966796875	273.6229553222656	397.9923095703125	457.679931640625	444.593017578125	506.9446105957031	282.4907531738281	429.8315124511719	607.2216186523438	486.1514587402344	256.7171936035156	87.65702819824219	104.64412689208984	300.36474609375	235.7987823486328	454.78338623046875	55.67613983154297	513.4442749023438	638.6114501953125	419.41802978515625	410.07757568359375	354.0898742675781	444.5212707519531	332.359130859375	305.6387939453125	549.4457397460938	288.15411376953125	588.5801391601562	567.5875244140625	681.5223388671875	337.8505859375	394.0740661621094	345.8435974121094	583.9108276367188	388.0274963378906	432.7557067871094	521.892333984375	385.982421875	230.38514709472656	458.1791076660156	486.0335388183594	525.9160766601562	453.66302490234375	414.18157958984375	365.27203369140625	485.2013854980469	499.30828857421875	393.56414794921875	448.29205322265625	646.1663208007812	709.1232299804688	435.8591003417969	496.4416809082031	376.6517333984375	500.19744873046875	431.0830383300781	326.581787109375	282.5532531738281	327.99224853515625	389.4787292480469	342.8779602050781	514.316650390625	463.7330627441406	600.4701538085938	366.64764404296875	360.6771240234375	379.420166015625	546.6981811523438	439.5551452636719	473.6019592285156	545.0064697265625	497.4897155761719	328.9071044921875	364.6040954589844	459.023193359375	720.7962036132812	357.888916015625	429.825439453125	268.86383056640625	516.7886962890625	415.8585510253906	219.5779266357422	383.3046875	642.6173095703125	627.285888671875
30	60	5589.998046875	5435.73876953125	7649.98876953125	8087.97900390625	7894.7255859375	8968.048828125	5961.62744140625	5568.712890625	6732.01025390625	6493.98095703125	4904.5009765625	8048.3798828125	6702.583984375	5994.10888671875	5375.81982421875	6307.8857421875	7652.1943359375	8040.005859375	7370.19580078125	8152.17724609375	5794.13818359375	5958.98974609375	5795.06103515625	8403.0908203125	6631.44287109375	5276.27880859375	1801.2369384765625	2459.293701171875	8110.09814453125	5782.82177734375	7462.470703125	1590.4573974609375	7594.27978515625	8456.5947265625	8082.63720703125	9478.880859375	5784.86572265625	7748.40673828125	7114.95849609375	7128.5380859375	8419.59375	6856.7275390625	8529.146484375	9981.2275390625	8261.9716796875	6761.763671875	7147.64208984375	7568.42138671875	8760.0	9132.20703125	8563.421875	10319.5712890625	7355.50927734375	8264.2470703125	7370.9208984375	9527.46484375	8908.666015625	8416.306640625	7951.337890625	7284.17431640625	7485.7880859375	8367.7373046875	7737.4697265625	7100.2041015625	9247.1123046875	8447.669921875	6765.27490234375	8353.083984375	7691.630859375	9519.455078125	6325.26123046875	7075.244140625	6759.58642578125	6784.89697265625	8871.375	6931.02099609375	8670.314453125	9447.1298828125	7836.1953125	6646.68701171875	6675.0419921875	7389.119140625	8052.724609375	8883.72265625	8149.5224609375	11108.4169921875	7553.46875	8783.927734375	7148.6171875	8778.53125	8410.93359375	7677.26220703125	7878.72607421875	6918.65869140625	7778.8544921875	8082.99169921875	7476.79296875	6142.09375	8914.9833984375	8437.08203125
60	90	13605.4033203125	14832.4560546875	18871.248046875	20255.357421875	18836.55078125	20892.5859375	13894.5595703125	12326.05859375	15112.0732421875	15098.3427734375	12506.5869140625	19099.15625	15927.36328125	14396.4501953125	13260.515625	14607.33984375	18808.255859375	18622.267578125	19288.8671875	20812.716796875	15142.4501953125	14516.1591796875	13722.9580078125	19038.3125	15441.37109375	14019.4111328125	4116.20751953125	5713.57080078125	21253.20703125	14208.248046875	16638.662109375	3771.888671875	19338.1015625	20165.953125	19300.50390625	22458.7734375	13296.5927734375	18411.52734375	17755.421875	16918.111328125	20974.298828125	16571.787109375	20086.240234375	22080.927734375	19622.2578125	16346.3486328125	16930.62890625	18318.126953125	20307.349609375	20633.25	20025.8828125	24770.96484375	17947.48828125	19829.75	18448.400390625	22336.744140625	19715.90234375	20098.283203125	19357.8359375	17542.998046875	17536.4375	19744.544921875	18391.810546875	15162.67578125	21869.33984375	18704.58203125	17842.716796875	20496.73046875	19491.484375	23388.109375	14108.623046875	17143.099609375	17479.140625	17093.9765625	19831.3671875	16846.548828125	20321.439453125	21253.89453125	19668.96484375	16090.8720703125	14638.126953125	19205.654296875	19923.634765625	21713.244140625	20171.818359375	25438.232421875	18358.984375	20043.38671875	17777.6796875	21577.7265625	19735.24609375	19233.99609375	19362.0546875	17315.525390625	18155.84765625	18937.28515625	19629.259765625	14766.921875	19873.681640625	18993.310546875
90	120	22539.53125	24413.126953125	31066.1328125	32775.59375	30851.28515625	36170.765625	23464.91015625	21233.859375	26177.921875	24023.458984375	20273.037109375	31898.453125	25320.87109375	24274.734375	22012.98046875	24965.15234375	31307.359375	31505.3671875	31380.419921875	36479.0390625	25489.599609375	24066.005859375	22074.32421875	31064.955078125	24735.046875	21420.88671875	6595.33544921875	9152.5048828125	33602.69921875	24276.12109375	26391.82421875	6103.1484375	31360.66015625	32613.546875	33338.34375	35610.4921875	21125.314453125	30540.060546875	29569.849609375	27439.22265625	32061.33984375	28169.75	33104.36328125	36072.00390625	32610.92578125	27483.419921875	26767.615234375	31523.09375	32161.078125	33860.0859375	32373.494140625	41638.46875	29932.845703125	33192.55859375	31049.80859375	35879.15625	30767.958984375	33379.83203125	32117.51953125	28695.91015625	28326.09375	31815.78125	31590.078125	24612.49609375	32336.376953125	30214.87109375	28501.443359375	32451.59765625	32077.763671875	37871.20703125	24009.58984375	29050.873046875	28556.755859375	28057.03515625	31499.435546875	28135.6640625	32799.52734375	35678.39453125	31137.560546875	27107.43359375	26498.66015625	32103.486328125	32620.71484375	35821.0625	32211.59765625	40277.7890625	29772.21484375	33928.09375	29442.966796875	34256.82421875	29574.552734375	32509.822265625	32231.259765625	28024.568359375	29157.236328125	30460.447265625	33902.9296875	25232.75	36195.99609375	30223.04296875
120	150	27755.787109375	30142.46484375	39186.42578125	40346.91015625	39302.87109375	44646.97265625	32680.515625	24885.755859375	30356.439453125	27312.1953125	24220.490234375	36118.484375	32049.966796875	28791.173828125	27303.03515625	30449.548828125	38783.37109375	38551.55859375	39544.20703125	44475.06640625	31550.2421875	29337.28515625	28092.205078125	41344.765625	31034.220703125	23793.673828125	7999.71630859375	10959.9921875	42433.73828125	29656.15234375	31025.39453125	7405.7744140625	39048.0390625	39744.05078125	40043.15625	43708.2578125	27174.138671875	37827.01171875	36373.49609375	34692.953125	38720.65625	35202.48046875	40173.53125	44964.44921875	38188.9765625	34445.68359375	32343.52734375	38591.7421875	39875.80078125	43315.82421875	40747.75390625	51257.78515625	37954.3203125	40918.50390625	37727.9765625	44044.1328125	38092.79296875	41036.1640625	38805.81640625	35351.81640625	35052.6171875	39776.55859375	38028.171875	29185.5078125	40070.76171875	35953.7265625	38072.32421875	38319.7578125	39048.3203125	45836.8828125	26679.017578125	36016.765625	35823.75	35053.765625	39156.8125	34545.05078125	39709.59375	42459.3984375	38332.2734375	33386.30078125	32340.779296875	38557.22265625	39242.8671875	44274.62109375	39773.77734375	51029.77734375	37228.984375	42494.50390625	37268.1953125	42736.359375	37125.3359375	40559.42578125	39555.55078125	35244.375	35178.65234375	37880.41015625	40437.25	29180.3828125	40942.015625	36053.78515625
150	180	28458.791015625	31136.412109375	39998.9140625	41271.6875	39516.625	45741.890625	33352.93359375	25627.8828125	30552.83203125	29608.732421875	23450.537109375	40546.27734375	31935.744140625	25816.4609375	27958.509765625	31431.638671875	39807.23828125	40724.921875	39507.73046875	46507.2890625	33846.49609375	29565.57421875	28422.916015625	38963.80078125	30951.5546875	23880.900390625	7887.83837890625	10899.6396484375	42105.9375	30997.794921875	30688.947265625	7483.328125	39198.80859375	39892.2734375	41482.9765625	42692.29296875	26544.060546875	38801.63671875	37404.2734375	35463.92578125	39406.23828125	35695.6015625	40703.859375	44170.125	38681.890625	35171.52734375	34904.11328125	39867.453125	41547.921875	41590.53125	39808.2890625	49437.59765625	38794.85546875	41431.6640625	38557.46484375	45519.48046875	37779.78125	42194.00390625	40144.875	36715.19140625	35917.59375	39823.984375	40323.4765625	29437.5234375	38508.98828125	36733.55078125	39070.75390625	38272.10546875	39977.89453125	45201.81640625	26026.94140625	36448.234375	36821.24609375	36010.58203125	39588.1875	35966.4453125	40773.53125	42148.52734375	38655.00390625	34698.77734375	33245.43359375	39313.3046875	39142.75390625	44964.92578125	40669.921875	50106.26171875	37021.72265625	44238.3203125	38173.7421875	43401.6484375	37650.0	40425.76171875	39569.1171875	36457.89453125	35288.25390625	39028.06640625	42096.7265625	29976.34765625	41955.04296875	36735.25390625
180	240	27588.521484375	30122.90625	39082.0390625	39446.66796875	37993.70703125	44623.90625	31829.96875	24940.595703125	30646.99609375	29316.912109375	22327.2421875	39206.33984375	30485.896484375	25686.30859375	27142.330078125	30910.3984375	38891.78515625	39402.29296875	39255.0625	43961.86328125	32643.857421875	29140.2890625	29194.533203125	37929.171875	29740.642578125	22820.958984375	7503.146484375	10818.5712890625	39685.7734375	30482.255859375	29044.330078125	7613.91455078125	39678.74609375	39634.2265625	39606.2734375	40772.1796875	26651.369140625	37085.69140625	36416.828125	34223.9609375	36646.91015625	34292.83203125	39068.953125	41715.61328125	37450.140625	35025.37890625	33245.08203125	38133.31640625	38157.34765625	41575.40234375	39211.47265625	47031.4453125	37233.70703125	40405.47265625	37348.32421875	42805.3671875	36896.07421875	40167.21484375	38156.8515625	35419.56640625	34916.0234375	38418.58203125	37891.3359375	29736.119140625	37036.57421875	35094.73828125	36826.86328125	37351.3125	37277.83203125	42157.56640625	27084.287109375	36296.7578125	35720.23828125	34909.9140625	37186.01171875	34393.984375	39035.21484375	40808.69921875	37304.6171875	33856.56640625	32599.859375	37347.78515625	37804.3125	42621.80859375	38820.171875	46947.41015625	36080.12109375	40230.4609375	35585.91015625	41459.78515625	35371.84375	39464.15625	38414.41796875	35093.37890625	34128.91015625	37102.4453125	40098.6328125	28032.240234375	39459.44140625	34388.0703125
240	300	26088.962890625	28830.083984375	36122.95703125	38277.32421875	36285.15234375	42652.765625	30112.408203125	24037.984375	29004.720703125	28072.78515625	20642.484375	35208.515625	30227.55859375	24588.375	25738.888671875	29114.158203125	35978.02734375	37222.96875	36302.06640625	41394.2109375	31749.744140625	27127.625	27787.513671875	36714.546875	28656.66015625	21047.9375	7200.556640625	10531.4228515625	36058.0703125	28517.01171875	26489.5078125	7653.2041015625	35467.09375	36306.03125	36905.41796875	36917.10546875	26444.806640625	34897.4453125	33622.84375	32671.888671875	33330.8828125	32173.291015625	36052.890625	37025.78515625	35814.2890625	32911.36328125	30542.38671875	34281.921875	35337.046875	37323.359375	35907.515625	42240.3671875	34484.83984375	37514.1953125	34677.29296875	39240.1796875	33561.26171875	36824.3828125	35271.09765625	32773.11328125	32740.306640625	35204.7265625	36208.88671875	29546.326171875	34977.13671875	33523.36328125	35114.7421875	34272.69921875	34600.7421875	39120.6015625	26013.97265625	34110.578125	33307.76953125	32656.06640625	34175.78125	32198.958984375	36269.72265625	37752.609375	34754.671875	31421.171875	30794.1953125	33627.6328125	34831.7109375	39835.8984375	35483.4375	41090.69140625	33186.4453125	38248.27734375	33627.01953125	37099.390625	33383.53125	36582.05859375	35455.54296875	32510.3125	31782.4765625	34615.03515625	37399.890625	27439.546875	35431.8828125	32530.99609375
300	360	24488.47265625	27299.974609375	32915.13671875	36508.53515625	32493.603515625	38759.41796875	29873.880859375	22113.072265625	26376.59375	27188.345703125	19033.37890625	33515.76953125	28635.40234375	21476.568359375	24270.2578125	27538.64453125	32704.154296875	35477.390625	32695.34765625	38465.3359375	30598.890625	26477.548828125	26990.3828125	34665.31640625	28470.76953125	19130.431640625	6792.31396484375	10196.484375	33947.66796875	27503.001953125	24074.314453125	7618.74462890625	32757.927734375	32275.486328125	33239.94921875	32805.5390625	24769.298828125	32154.09375	31116.009765625	30566.0078125	30731.248046875	29194.0703125	32912.96875	34179.203125	32072.236328125	31144.685546875	28648.896484375	31604.115234375	31537.38671875	34278.32421875	32162.1796875	36176.46484375	31427.39453125	34998.85546875	31688.408203125	35473.07421875	32350.615234375	33554.87109375	32301.03515625	29918.564453125	30596.3671875	32309.82421875	32272.927734375	26059.390625	33019.84765625	31833.509765625	32644.341796875	30938.404296875	31794.451171875	35287.9609375	25373.45703125	32513.841796875	30322.40625	30343.462890625	29700.21875	29003.451171875	33181.96875	33870.0625	32126.70703125	29271.01171875	30324.345703125	30615.552734375	32232.291015625	35628.19140625	32601.234375	36952.26953125	30169.40625	33549.90625	30360.615234375	34025.2734375	31998.822265625	33175.8359375	32420.71484375	29593.626953125	29436.484375	31707.5078125	34558.86328125	26386.392578125	33109.765625	30497.853515625
360	480	22664.8828125	25151.1640625	29392.556640625	32510.380859375	29105.955078125	34690.0703125	29265.8515625	21179.400390625	24754.08203125	25380.57421875	17610.826171875	30843.6328125	27045.41796875	20072.591796875	22468.537109375	25702.990234375	29091.125	32254.2265625	29312.623046875	34184.72265625	28993.986328125	24029.6171875	24939.701171875	30719.322265625	26389.947265625	17732.056640625	6477.40283203125	10002.2294921875	29801.05078125	25576.935546875	21359.728515625	7724.43798828125	30148.1796875	30181.173828125	29463.5390625	29005.0234375	22112.9140625	29273.8671875	27472.703125	28013.609375	27356.80859375	26057.787109375	29605.5859375	30124.86328125	28894.482421875	27905.794921875	26324.19140625	27908.314453125	28405.138671875	30751.375	28686.759765625	31076.845703125	27837.32421875	30013.580078125	28056.10546875	30815.482421875	28788.244140625	29753.912109375	28491.134765625	26476.689453125	27530.26171875	28705.662109375	28751.353515625	26010.412109375	28708.5390625	28508.50390625	29713.447265625	29061.1015625	27287.6484375	30604.046875	22730.37890625	28903.736328125	26920.080078125	27608.484375	28317.15625	26042.765625	29278.400390625	29731.72265625	28650.263671875	26288.791015625	27265.02734375	27914.20703125	28163.181640625	31995.259765625	28393.240234375	31956.130859375	26734.0078125	30750.125	27220.064453125	29762.564453125	28594.853515625	29168.638671875	28588.99609375	26405.060546875	26463.8671875	27626.072265625	29450.126953125	24938.078125	28343.380859375	27123.41015625
480	600	21120.658203125	23728.65625	25717.30078125	29735.775390625	25192.90625	30539.505859375	27875.353515625	19819.240234375	22951.8984375	24070.0859375	15991.4052734375	27564.71484375	25387.9765625	18708.361328125	20777.568359375	23340.111328125	25186.740234375	29214.728515625	25539.05078125	30237.3984375	27132.85546875	22383.35546875	23713.216796875	27496.6328125	24616.12890625	16794.201171875	6290.36279296875	9809.9052734375	25642.0234375	23659.625	18757.521484375	7866.77001953125	26157.697265625	25361.142578125	25643.267578125	25381.068359375	21178.6953125	26333.26171875	24537.841796875	25385.6953125	24197.623046875	23337.2265625	26582.1328125	26088.068359375	25606.130859375	24817.958984375	24112.818359375	24594.98046875	25140.02734375	26846.986328125	25279.8359375	26783.54296875	24294.326171875	26824.341796875	24540.158203125	27138.4921875	26206.46875	26167.6875	25206.65234375	23094.609375	24917.2109375	25715.072265625	24994.5625	23744.044921875	25932.009765625	25738.05859375	25384.791015625	25043.89453125	24200.783203125	27025.734375	21452.767578125	26093.798828125	23683.3046875	24847.146484375	24433.435546875	23166.9375	26251.376953125	26068.033203125	25769.03515625	23425.806640625	23912.294921875	23697.63671875	24631.21875	28392.59375	25045.4609375	27776.765625	23188.52734375	26577.43359375	24154.21875	25943.5703125	25080.759765625	25535.58984375	24769.294921875	22982.91015625	23488.63671875	24437.619140625	25967.619140625	22092.279296875	24924.08984375	24352.77734375
600	900	19755.29296875	21796.49609375	21801.03515625	26193.197265625	20898.78515625	26678.666015625	25930.353515625	18393.94921875	20886.078125	21929.537109375	14673.9560546875	24384.83984375	23793.7890625	17611.697265625	19511.3046875	21593.07421875	21510.958984375	25848.279296875	21305.419921875	25830.037109375	25375.73828125	20467.171875	21800.53515625	24001.044921875	22974.048828125	15095.4892578125	6240.5556640625	10012.13671875	21231.984375	21933.62890625	16540.951171875	8422.1953125	22847.40625	23041.140625	22437.25	22239.421875	19922.970703125	23199.36328125	21327.533203125	22689.369140625	21489.25	20526.9375	23342.27734375	23199.71875	22972.67578125	22101.462890625	21413.599609375	21617.095703125	22017.5625	23592.14453125	21868.595703125	23451.1171875	21293.90234375	22876.75390625	21882.8671875	23381.638671875	22703.111328125	22709.728515625	21713.109375	20519.5859375	21815.810546875	22348.373046875	21693.814453125	21410.859375	22680.15625	22926.03125	22584.75390625	22567.802734375	21100.07421875	23820.51953125	19416.236328125	23288.927734375	20838.880859375	22280.486328125	21383.5078125	20525.3359375	22870.24609375	22957.607421875	22276.7109375	21102.046875	20841.158203125	21536.318359375	21348.646484375	24995.3359375	22120.7578125	24564.046875	20485.8125	23259.544921875	21098.669921875	22727.27734375	22447.40625	22253.455078125	21714.783203125	20168.509765625	20820.29296875	21329.984375	22242.224609375	20156.07421875	22162.5390625	22000.40625
900	1200	18570.89453125	20120.3671875	18265.54296875	22322.388671875	18454.28515625	22892.978515625	23047.41796875	16521.880859375	18740.80859375	19444.57421875	13461.5205078125	21326.58984375	21584.408203125	15979.6337890625	18234.19921875	19699.650390625	17936.890625	21822.94921875	18108.306640625	22154.83984375	22886.521484375	17905.841796875	19287.431640625	20853.701171875	21156.94140625	14070.8505859375	6249.337890625	10343.4375	18148.5546875	20273.4921875	14660.4453125	9160.130859375	20417.783203125	20505.740234375	19744.484375	19540.7421875	18257.3828125	20529.81640625	18747.24609375	20360.310546875	19270.875	18363.90625	20472.892578125	20463.212890625	19940.91015625	19705.322265625	19131.5546875	18770.052734375	19261.3125	20591.4609375	19416.94140625	21150.673828125	18679.849609375	20648.52734375	19077.603515625	20380.1171875	20278.14453125	20232.322265625	18978.767578125	17995.9140625	19537.845703125	19555.671875	18778.34765625	19218.30859375	20372.134765625	20450.814453125	19956.35546875	19965.822265625	18736.30859375	20864.923828125	17277.43359375	20298.80078125	18333.728515625	19714.578125	19079.626953125	18346.173828125	20433.3125	20462.5546875	19699.7890625	18517.392578125	18781.59765625	18583.66015625	19349.607421875	21720.146484375	19440.115234375	21844.0703125	18033.01171875	20055.93359375	18620.158203125	20171.478515625	19797.802734375	19579.6328125	18728.75	17748.41015625	18534.662109375	18599.64453125	19398.822265625	18632.912109375	19386.716796875	19587.1953125
1200	1500	17585.345703125	18517.9140625	15668.533203125	19578.212890625	16397.34375	19760.611328125	20898.341796875	14706.662109375	16803.603515625	17318.0546875	12438.6455078125	17357.494140625	19391.720703125	15078.1181640625	17287.93359375	18439.63671875	15542.5029296875	19115.828125	15950.5986328125	19352.111328125	20326.66796875	15980.41796875	17442.51953125	17685.271484375	18751.650390625	13341.5439453125	6153.8857421875	10378.4189453125	15726.208984375	18410.234375	13355.0615234375	9507.83203125	19028.572265625	18042.0859375	17765.44140625	18065.5078125	16124.505859375	18803.783203125	17014.2734375	18667.14453125	17634.27734375	16821.890625	18970.888671875	18694.751953125	17802.4296875	17754.556640625	17288.408203125	17198.404296875	17418.35546875	18853.138671875	17489.099609375	19411.125	17029.009765625	18631.544921875	17515.369140625	18638.685546875	17761.580078125	18127.48828125	16975.30859375	16259.9287109375	17323.697265625	17695.572265625	16901.189453125	17305.125	18498.724609375	18334.869140625	18509.728515625	17922.15625	16957.603515625	18699.353515625	16259.0458984375	18499.423828125	16726.150390625	17922.32421875	17435.4609375	16883.873046875	18577.453125	18363.564453125	17828.408203125	16901.32421875	17158.80859375	17145.67578125	17474.515625	19452.9140625	17702.01953125	19669.1875	16397.646484375	18499.71875	16988.5078125	18103.9609375	17327.380859375	17664.69140625	17006.708984375	15998.431640625	16797.302734375	16960.603515625	17189.470703125	16076.791015625	18177.958984375	18027.162109375
1500	1800	16480.12890625	16669.08984375	13554.94140625	17382.9765625	14105.66796875	17622.154296875	18736.9921875	13077.6787109375	14573.6591796875	15541.80859375	11201.9013671875	15259.1884765625	17165.072265625	13533.5087890625	16201.3330078125	16296.16796875	13367.7333984375	16671.625	14036.56640625	16762.244140625	18324.0703125	14273.0185546875	15175.2744140625	15104.513671875	16783.994140625	12197.1025390625	6093.83154296875	10279.447265625	13428.3310546875	16551.283203125	12079.259765625	9699.076171875	17042.625	16271.712890625	15862.0888671875	16267.40625	14483.3427734375	16920.826171875	15509.8212890625	16972.501953125	16148.779296875	15436.39453125	17203.17578125	16832.501953125	16306.37890625	16184.84765625	15332.46875	14844.9111328125	15970.431640625	17382.95703125	15784.337890625	17344.142578125	15377.6015625	16384.228515625	15861.8671875	16605.181640625	16073.12890625	16303.212890625	15217.4150390625	14749.9912109375	15701.8076171875	16130.04296875	15421.767578125	15580.9921875	16521.080078125	16606.8359375	16578.708984375	16099.19140625	15501.83203125	17154.83984375	13927.251953125	17031.2890625	14873.7568359375	16699.640625	15863.1591796875	15504.916015625	17262.052734375	16845.69921875	16463.41796875	15190.94921875	15351.412109375	15028.943359375	15752.8916015625	17553.66796875	16244.9091796875	17560.08984375	14973.072265625	16640.04296875	15288.2216796875	16323.5947265625	15626.087890625	15714.5849609375	15069.43359375	14600.09375	15006.724609375	15367.7470703125	15638.8583984375	14806.1962890625	15822.6904296875	16030.314453125
1800	2100	15515.9228515625	15401.703125	11727.9091796875	14691.87890625	12440.1748046875	15603.392578125	16703.4921875	11819.572265625	12846.974609375	13636.65234375	10559.837890625	13249.052734375	14895.1630859375	12857.927734375	15208.1806640625	15027.2138671875	11712.6904296875	14759.8662109375	12435.6279296875	15304.7236328125	16405.1015625	13034.5986328125	13384.166015625	13824.4208984375	15032.4677734375	11528.080078125	5884.0341796875	10145.966796875	11710.49609375	14881.4892578125	11179.68359375	9717.7646484375	15535.763671875	14883.0361328125	14417.23046875	14944.958984375	13347.33984375	15474.125	14526.9599609375	15470.318359375	15051.4140625	14383.5322265625	15582.634765625	15587.3203125	14807.345703125	14752.58984375	14110.5810546875	13875.0029296875	14651.6083984375	15540.1884765625	14961.6005859375	16171.44921875	14141.125	15008.8388671875	14527.8017578125	15242.0	14619.11328125	14874.6484375	13973.671875	13812.0234375	14414.9189453125	15073.7763671875	14191.5986328125	14105.109375	15272.9580078125	15347.76171875	15563.5830078125	14903.7470703125	13969.798828125	15436.7099609375	12843.810546875	15486.224609375	13786.0966796875	15234.3310546875	15046.41015625	14288.12109375	15356.7431640625	15694.44140625	14696.123046875	14045.8974609375	14170.78515625	13920.12109375	14459.4189453125	16471.6484375	14625.625	16483.4140625	13734.966796875	15061.97265625	13874.220703125	14896.3955078125	14493.6796875	14827.10546875	13640.220703125	13420.8095703125	13771.5576171875	14144.576171875	14441.7509765625	13059.1708984375	15080.802734375	14741.5869140625
2100	2400	14589.4521484375	13954.3232421875	10603.4736328125	13333.4599609375	11708.4150390625	14106.7109375	14976.9658203125	10569.1171875	12044.15234375	11904.5361328125	9922.5751953125	11381.1748046875	13380.78515625	11771.83203125	14351.3994140625	13774.59375	10589.3271484375	12776.7900390625	11313.375	13669.251953125	14163.12890625	11576.7236328125	12244.7275390625	12977.5078125	13108.55078125	10745.0234375	5771.919921875	9947.9052734375	10949.0419921875	13701.6904296875	10567.509765625	9682.5205078125	14766.3271484375	13588.63671875	13103.5673828125	14327.3818359375	12219.53125	14853.666015625	13425.744140625	14576.7646484375	13692.431640625	13492.2275390625	14632.85546875	14971.1533203125	14122.486328125	13807.0771484375	12796.603515625	13294.171875	13607.099609375	14599.2041015625	13653.091796875	14828.837890625	13134.8994140625	14390.41015625	13417.12890625	14449.560546875	13199.072265625	13968.544921875	12917.7314453125	12700.572265625	13443.9736328125	13689.263671875	13473.1591796875	13057.376953125	14400.65625	14055.904296875	14482.6142578125	14113.29296875	13043.38671875	14714.66015625	12072.7275390625	14426.4384765625	13062.1630859375	14199.896484375	13732.53515625	13645.2529296875	14463.2666015625	14527.330078125	13729.798828125	13119.470703125	13090.5966796875	12787.60546875	13279.2373046875	15491.94140625	13808.4228515625	15400.931640625	12917.70703125	13625.26953125	13149.015625	14119.7919921875	13487.6806640625	13646.56640625	12839.4716796875	12620.8935546875	12731.9775390625	13138.05859375	13358.2744140625	12603.2451171875	13522.384765625	13943.146484375
2400	2700	13784.8564453125	12881.505859375	9725.4130859375	12179.8935546875	10906.40234375	13024.8212890625	13399.822265625	9730.2646484375	11386.2431640625	11296.5634765625	9317.2412109375	10412.7275390625	12216.705078125	11954.8056640625	13579.61328125	12452.36328125	9779.146484375	11386.22265625	10415.6318359375	12256.4150390625	13028.013671875	11148.2158203125	10920.26953125	11249.3994140625	12119.1279296875	9576.8671875	5567.67333984375	9735.5966796875	9689.009765625	12450.849609375	10075.5107421875	9571.0380859375	13760.8505859375	12978.5654296875	12705.6826171875	13290.2578125	11719.5849609375	13859.39453125	12869.33984375	13778.5009765625	12978.140625	12888.4921875	13799.830078125	14003.2939453125	13350.2451171875	13000.1162109375	11997.025390625	12287.8505859375	12965.5146484375	13599.1845703125	12967.16015625	14148.564453125	12558.375	13150.5625	12495.5537109375	13378.7724609375	12678.1728515625	13025.3740234375	12122.982421875	11861.2353515625	12566.853515625	13027.1572265625	12700.4853515625	12416.9111328125	13220.51953125	13316.0849609375	12958.4443359375	12468.58203125	12419.830078125	13664.701171875	11541.8681640625	13687.826171875	12150.6064453125	13438.447265625	12853.9375	12681.5859375	13592.4033203125	13783.3525390625	13065.7509765625	12277.458984375	12435.4052734375	12181.306640625	13092.84375	14384.3369140625	13197.21875	14771.41796875	12342.9755859375	13386.4404296875	12378.296875	13177.06640625	12521.9951171875	13013.2861328125	11873.9697265625	11886.1025390625	12157.6416015625	12340.611328125	11558.373046875	11245.935546875	13134.69140625	12768.984375
