frame_start	frame_end	Left-Cerebral-White-Matter	Left-Cerebellum-White-Matter	Left-Cerebellum-Cortex	Left-Thalamus	Left-Caudate	Left-Putamen	Left-Pallidum	Brain-Stem	Left-Hippocampus	Left-Amygdala	CSF	Left-Accumbens-area	Left-VentralDC	Left-choroid-plexus	Right-Cerebral-White-Matter	Right-Cerebellum-White-Matter	Right-Cerebellum-Cortex	Right-Thalamus	Right-Caudate	Right-Putamen	Right-Pallidum	Right-Hippocampus	Right-Amygdala	Right-Accumbens-area	Right-VentralDC	Right-choroid-plexus	AirCavity	Skull	Vermis	Pons	CSF-ExtraCerebral	Head-ExtraCerebral	ctx-lh-bankssts	ctx-lh-caudalanteriorcingulate	ctx-lh-caudalmiddlefrontal	ctx-lh-cuneus	ctx-lh-entorhinal	ctx-lh-fusiform	ctx-lh-inferiorparietal	ctx-lh-inferiortemporal	ctx-lh-isthmuscingulate	ctx-lh-lateraloccipital	ctx-lh-lateralorbitofrontal	ctx-lh-lingual	ctx-lh-medialorbitofrontal	ctx-lh-middletemporal	ctx-lh-parahippocampal	ctx-lh-paracentral	ctx-lh-parsopercularis	ctx-lh-parsorbitalis	ctx-lh-parstriangularis	ctx-lh-pericalcarine	ctx-lh-postcentral	ctx-lh-posteriorcingulate	ctx-lh-precentral	ctx-lh-precuneus	ctx-lh-rostralanteriorcingulate	ctx-lh-rostralmiddlefrontal	ctx-lh-superiorfrontal	ctx-lh-superiorparietal	ctx-lh-superiortemporal	ctx-lh-supramarginal	ctx-lh-frontalpole	ctx-lh-temporalpole	ctx-lh-transversetemporal	ctx-lh-insula	ctx-rh-bankssts	ctx-rh-caudalanteriorcingulate	ctx-rh-caudalmiddlefrontal	ctx-rh-cuneus	ctx-rh-entorhinal	ctx-rh-fusiform	ctx-rh-inferiorparietal	ctx-rh-inferiortemporal	ctx-rh-isthmuscingulate	ctx-rh-lateraloccipital	ctx-rh-lateralorbitofrontal	ctx-rh-lingual	ctx-rh-medialorbitofrontal	ctx-rh-middletemporal	ctx-rh-parahippocampal	ctx-rh-paracentral	ctx-rh-parsopercularis	ctx-rh-parsorbitalis	ctx-rh-parstriangularis	ctx-rh-pericalcarine	ctx-rh-postcentral	ctx-rh-posteriorcingulate	ctx-rh-precentral	ctx-rh-precuneus	ctx-rh-rostralanteriorcingulate	ctx-rh-rostralmiddlefrontal	ctx-rh-superiorfrontal	ctx-rh-superiorparietal	ctx-rh-superiortemporal	ctx-rh-supramarginal	ctx-rh-frontalpole	ctx-rh-temporalpole	ctx-rh-transversetemporal	ctx-rh-insula
0	30	315.1838684082031	284.8905944824219	253.93423461914062	301.3727111816406	396.5691223144531	413.2022705078125	375.7079162597656	283.50567626953125	325.519775390625	252.1116180419922	386.27703857421875	667.2033081054688	682.7146606445312	330.6429138183594	317.72430419921875	319.5043029785156	299.33966064453125	297.0389404296875	488.5376892089844	494.1105651855469	611.8106689453125	376.7145080566406	343.94805908203125	572.8248291015625	572.4153442382812	284.7688293457031	29.075490951538086	77.7676773071289	277.9939270019531	260.0013732910156	292.8658142089844	48.28562545776367	378.7869567871094	491.7328186035156	323.0521240234375	403.4088134765625	562.0765991210938	273.4997863769531	300.4114990234375	151.97283935546875	294.94940185546875	281.35699462890625	150.4501495361328	295.1725769042969	190.07090759277344	188.63587951660156	181.45089721679688	367.6608581542969	335.261474609375	74.31729125976562	215.24139404296875	250.9857635498047	298.98590087890625	284.4425048828125	365.7760009765625	339.97332763671875	457.65374755859375	220.06651306152344	372.3062438964844	306.5846862792969	257.3396911621094	351.809326171875	3.0681803226470947	91.97652435302734	512.4017333984375	613.3599853515625	483.8595275878906	435.66241455078125	376.2049865722656	357.9901123046875	630.2310791015625	324.1242980957031	289.7491455078125	202.7004852294922	312.9149169921875	301.61395263671875	151.16061401367188	373.0891418457031	314.31842041015625	162.26181030273438	282.7504577636719	400.548095703125	399.261962890625	72.74144744873047	205.9039764404297	458.4288330078125	275.18182373046875	340.26605224609375	340.0697937011719	352.2008361816406	443.2173767089844	241.9236602783203	317.62005615234375	313.7155456542969	278.125244140625	347.96923828125	9.217426300048828	83.74762725830078	448.68328857421875	501.3721008300781
30	60	7032.986328125	7474.2109375	7594.85693359375	8049.892578125	8103.19482421875	9256.9619140625	9023.8876953125	5165.6376953125	7830.42041015625	6668.49853515625	7663.74365234375	10013.1953125	8476.9423828125	6984.16650390625	6837.30615234375	7457.857421875	7297.61865234375	7720.08837890625	7509.64306640625	9300.6494140625	9287.1865234375	7420.322265625	6824.83837890625	9909.0849609375	8783.6025390625	5793.302734375	1621.0693359375	2128.279541015625	9023.201171875	5058.16162109375	6063.22216796875	1801.1273193359375	9509.240234375	8960.3408203125	7665.7353515625	10148.044921875	7414.9111328125	7374.70458984375	7140.01416015625	4746.23828125	6762.798828125	7891.9853515625	3706.2978515625	8539.44140625	5671.052734375	4554.49755859375	6087.17529296875	9321.19921875	7229.7353515625	2936.603515625	5821.3955078125	9465.0302734375	6439.5556640625	8246.572265625	7440.95703125	8710.44921875	10836.4658203125	5608.87109375	8316.4306640625	7342.373046875	6105.36376953125	6751.8369140625	465.4193420410156	3715.79248046875	11570.0341796875	9516.4873046875	8966.1953125	7417.57275390625	7233.2548828125	9178.921875	5118.7587890625	7563.81640625	6125.43603515625	4530.44384765625	7068.52978515625	7914.08251953125	3182.337890625	8531.3515625	5504.65185546875	4199.279296875	6432.49755859375	8050.88720703125	7781.66259765625	3536.874755859375	5266.21337890625	10284.92578125	6180.2236328125	7649.38720703125	7036.20947265625	7659.8564453125	9341.1728515625	4990.80810546875	6839.0498046875	7036.08154296875	5460.796875	6567.66748046875	912.3428344726562	4638.96435546875	10103.9560546875	9129.52734375
60	90	15814.4580078125	16558.740234375	16612.66015625	18005.333984375	18184.115234375	21368.3828125	18952.59765625	11358.1875	16089.712890625	14325.0205078125	16695.423828125	19247.712890625	16218.6259765625	16045.5634765625	15462.0517578125	17139.576171875	16803.134765625	17392.5546875	18181.234375	18656.44921875	20139.6484375	15930.8447265625	14924.8046875	19971.515625	15677.1953125	12652.794921875	3870.885498046875	4812.33642578125	21508.755859375	10199.9169921875	12982.4609375	4151.20263671875	19059.3984375	20349.9921875	17214.1953125	22907.744140625	13455.7431640625	16546.228515625	16578.75	9949.830078125	15407.8515625	17324.43359375	8346.552734375	19529.912109375	12709.2783203125	10735.341796875	11605.4296875	19898.462890625	16190.896484375	6573.47216796875	13667.3212890625	21106.66796875	14333.8876953125	18818.439453125	16327.4833984375	19630.412109375	24844.416015625	12432.78125	18277.306640625	16808.4296875	13217.0595703125	14807.8955078125	1313.5794677734375	8786.64453125	24697.955078125	19610.44921875	20329.81640625	18034.33203125	16082.4375	21282.7578125	8689.9560546875	16575.720703125	13717.7607421875	9573.8994140625	15592.7822265625	17610.248046875	7268.22509765625	18684.923828125	12169.7568359375	8995.3330078125	14469.361328125	18054.35546875	17265.859375	8030.05908203125	12432.1474609375	22275.875	13605.9638671875	16553.576171875	15674.279296875	17930.1640625	21892.083984375	11623.697265625	15433.5986328125	15961.126953125	12246.208984375	13852.5029296875	1968.108642578125	10356.2919921875	22613.37890625	19717.326171875
90	120	24567.935546875	25088.21484375	25656.37890625	27659.8828125	27776.982421875	32786.21875	31080.361328125	17657.984375	24902.845703125	22813.7578125	26119.27734375	29253.748046875	23981.865234375	24895.64453125	24134.0625	26032.654296875	25646.93359375	27379.310546875	28262.240234375	30622.017578125	30755.369140625	24399.095703125	23592.2578125	30055.15625	23834.908203125	19889.23828125	5732.09716796875	7370.89111328125	30135.931640625	14958.0869140625	19902.619140625	6629.095703125	31735.779296875	32752.033203125	26780.927734375	33917.43359375	17447.53125	26167.0234375	25332.41796875	15208.4375	22923.35546875	27085.30859375	13020.2177734375	30157.8203125	20979.0234375	17131.53515625	19213.6484375	29607.96484375	24554.74609375	10377.8134765625	22135.935546875	35491.72265625	22366.53515625	28750.8203125	25441.4921875	29793.072265625	38826.5390625	19346.521484375	28285.5546875	26594.08203125	21019.9921875	21921.626953125	2203.3447265625	13636.4365234375	38424.8359375	28801.751953125	31830.365234375	29075.77734375	24290.39453125	33497.0234375	12167.783203125	26048.328125	22027.720703125	14622.638671875	23613.6875	26825.869140625	10736.310546875	28684.736328125	18639.48828125	14567.673828125	22397.234375	28036.7734375	27112.720703125	12474.0712890625	19838.400390625	36230.28515625	21314.236328125	25350.017578125	24372.140625	27076.74609375	34964.8828125	17972.177734375	24453.53515625	25172.927734375	19545.533203125	22028.734375	2597.980712890625	19324.041015625	36903.59765625	29189.517578125
120	150	31437.521484375	32373.080078125	32697.326171875	35182.66015625	36341.875	42237.16796875	40870.80078125	22518.59375	32106.05078125	29924.3671875	33712.78125	36913.734375	28703.220703125	30049.5234375	30643.08984375	33903.55859375	32653.2265625	35185.12890625	35773.109375	40288.1328125	38091.12890625	32193.48828125	30216.6171875	35157.54296875	28004.080078125	26976.994140625	7588.2509765625	9427.21875	41280.3359375	18424.3984375	24782.748046875	8377.83984375	40218.83984375	40066.83203125	34453.46484375	42583.01171875	19670.3203125	33322.21875	32858.609375	19379.740234375	28314.455078125	34256.29296875	16472.755859375	38406.55859375	25438.9765625	22800.19921875	24467.283203125	38712.5078125	31793.009765625	13382.2080078125	28941.703125	44145.00390625	28617.771484375	36056.44140625	32631.29296875	38724.62109375	47893.83984375	24895.328125	35082.67578125	34205.63671875	27127.193359375	28944.62109375	2757.327392578125	19448.53515625	46219.62109375	36499.7734375	41219.91796875	34954.08984375	31321.6875	43323.66015625	13625.08203125	32692.310546875	27450.958984375	18233.78515625	28406.119140625	33966.1171875	14190.6875	35214.3046875	22437.435546875	18789.078125	28288.1015625	36493.32421875	34771.31640625	17023.9375	26638.125	46341.3046875	27056.642578125	31445.298828125	31163.212890625	35170.35546875	42523.703125	23279.966796875	30516.431640625	32663.45703125	25242.275390625	27276.326171875	3839.873291015625	25102.94921875	43456.41796875	36167.7265625
150	180	33024.88671875	33779.9609375	35438.05078125	39136.703125	38480.51171875	43440.9453125	39985.09765625	24195.0546875	35513.1875	32269.98046875	35948.734375	37463.38671875	27634.1328125	33306.7578125	32583.447265625	35394.28125	35084.73046875	37826.3046875	39168.859375	39908.64453125	40856.90625	34133.640625	31140.802734375	36613.15234375	28305.75	28921.052734375	7923.57568359375	10091.228515625	44791.4375	19561.953125	26009.341796875	9185.501953125	43205.7734375	42073.2265625	36008.5546875	43939.01171875	20147.935546875	35943.44921875	35159.51171875	20259.9609375	29874.537109375	36427.46875	17487.654296875	40214.51953125	26520.822265625	24677.7578125	25066.12890625	40354.4140625	33264.234375	14464.845703125	30530.265625	46118.20703125	30755.28125	37484.94140625	33853.8984375	39833.93359375	50478.5703125	26268.064453125	36566.296875	35087.73046875	28744.70703125	29797.4609375	3084.630615234375	21926.650390625	49625.2890625	38263.01171875	43224.90625	37229.11328125	33026.1328125	44506.79296875	11965.4326171875	34691.23046875	29031.537109375	19010.33203125	30116.04296875	35336.37109375	15238.3740234375	36153.41796875	23455.16015625	20571.966796875	27874.984375	38741.90234375	36258.6171875	19917.599609375	29292.611328125	48418.81640625	28547.62890625	34134.05078125	33229.43359375	37512.6484375	44202.921875	24604.490234375	32084.466796875	34530.84765625	27259.177734375	28824.443359375	4547.83837890625	28289.875	46367.6015625	37508.046875
180	240	32946.34765625	34286.1171875	34808.8984375	39441.08203125	38524.359375	44598.32421875	41206.63671875	23702.494140625	34490.27734375	33156.94140625	35395.296875	37644.37890625	27144.056640625	32319.3828125	32347.171875	35535.234375	34464.13671875	37621.8203125	38698.32421875	41511.00390625	40664.60546875	35364.9453125	31836.2578125	36922.6640625	27774.447265625	28606.96875	8073.49951171875	10309.810546875	43150.5078125	19152.091796875	25679.18359375	9592.0185546875	41722.6953125	40753.0234375	35750.28125	44208.86328125	19417.814453125	35560.2734375	35328.0078125	20098.5703125	28690.427734375	36279.08984375	17543.59375	40609.2578125	25609.599609375	24726.48046875	25179.634765625	40463.25390625	32317.375	15627.578125	30991.197265625	46436.08203125	29945.3515625	37130.81640625	33554.40625	39489.78515625	49456.171875	25740.55859375	35967.79296875	35724.921875	28967.3515625	29601.755859375	3065.13818359375	22580.986328125	47279.55859375	37360.01953125	41956.234375	36548.42578125	32689.33984375	44654.21875	11090.8994140625	34488.2265625	29361.6875	18296.828125	28510.9296875	34882.578125	15284.1845703125	36498.5625	22920.966796875	20938.8671875	27656.365234375	37405.81640625	35254.40234375	20661.771484375	29782.830078125	47769.2890625	28019.34375	32473.9765625	32544.16015625	36544.15625	43506.484375	24607.751953125	31491.896484375	34566.77734375	27790.876953125	27959.5078125	4627.63427734375	28445.197265625	45374.1171875	38121.078125
240	300	31785.330078125	33663.58203125	33626.74609375	38557.40625	37172.94921875	43684.15625	39992.5078125	23501.98828125	34935.19140625	31997.232421875	34289.109375	36547.34765625	26909.787109375	32497.890625	31167.07421875	34895.40625	33311.01171875	37296.31640625	37878.0078125	38935.609375	38642.54296875	34873.50390625	32259.921875	36888.03125	26176.38671875	26824.62890625	8206.7216796875	10407.0390625	42026.39453125	18714.982421875	24628.603515625	9755.244140625	39445.71484375	39182.46484375	33800.83984375	41237.17578125	18381.076171875	34438.18359375	34154.7734375	19451.865234375	27693.505859375	34086.6875	16568.10546875	38140.40234375	24834.556640625	24205.05078125	25362.8984375	37989.44921875	31143.9453125	15249.8134765625	30963.791015625	43842.765625	28795.59765625	35251.21875	32160.349609375	37101.0	47330.640625	24915.029296875	34128.28125	34514.25390625	28216.9921875	28038.333984375	3703.154296875	22621.25	45838.2109375	35859.3125	40786.0390625	33999.84765625	31371.185546875	41289.17578125	10457.2060546875	32908.1171875	28101.1015625	17892.388671875	28749.103515625	33238.06640625	14994.931640625	34480.68359375	22141.72265625	20490.001953125	27312.720703125	36339.1640625	34401.2890625	20380.05859375	28967.869140625	45664.2421875	27377.63671875	32440.328125	30989.25	34819.55078125	42283.85546875	23403.248046875	30359.4296875	32779.73046875	26878.888671875	26780.9609375	4958.765625	28443.94140625	41747.1953125	37396.94140625
300	360	30189.673828125	31088.578125	31687.73046875	37648.90625	34874.765625	40945.5	38355.078125	22448.20703125	32467.326171875	31248.693359375	32678.595703125	32657.025390625	25095.55078125	31862.22265625	29525.431640625	32941.22265625	31574.728515625	36440.90625	36036.26171875	36967.83203125	36513.11328125	32615.396484375	32304.505859375	35299.4765625	25280.947265625	25604.103515625	7915.130859375	10280.826171875	38695.859375	17863.349609375	23169.71875	9882.3671875	37497.26953125	37146.64453125	31733.330078125	37681.8828125	17568.611328125	32088.72265625	31416.279296875	18572.2890625	26048.5078125	32079.521484375	15980.1123046875	35583.75	22631.12890625	23031.451171875	22357.384765625	35259.8984375	29117.92578125	14563.31640625	29190.51953125	41620.21875	26772.6953125	33126.5390625	30286.99609375	34766.87890625	44066.93359375	23401.546875	31963.275390625	31925.810546875	26755.6484375	26379.751953125	3293.03759765625	22070.416015625	41660.37109375	33485.0703125	38777.34375	32844.1796875	28988.546875	38797.42578125	10012.4462890625	30884.724609375	25752.68359375	16589.5859375	26543.12109375	31357.005859375	14297.8115234375	32418.390625	20384.27734375	19582.9296875	25904.982421875	33987.8203125	31559.267578125	19803.91015625	27696.029296875	42742.75390625	25104.83984375	30088.916015625	29017.9140625	33215.6640625	40463.91015625	21974.7890625	28563.3515625	30522.388671875	26096.955078125	24678.44140625	5112.849609375	27606.30859375	39284.46875	34772.29296875
360	480	27360.30859375	28820.83203125	28732.9375	35494.01953125	32378.78125	37079.66015625	35094.3359375	21488.49609375	30554.052734375	30068.45703125	30148.5078125	30901.697265625	23498.24609375	28084.650390625	26818.666015625	30036.427734375	28543.103515625	33889.9609375	32600.03515625	34555.125	33956.546875	30383.6796875	30392.232421875	31392.099609375	23083.333984375	24248.236328125	7828.2607421875	9883.5380859375	34788.9765625	17245.916015625	20627.875	9527.123046875	32262.634765625	33114.2109375	28010.8125	33278.5703125	15438.1640625	29014.166015625	28182.287109375	16668.544921875	24017.01171875	28059.779296875	14773.3662109375	31317.845703125	20264.56640625	21074.431640625	21338.15234375	31139.66015625	25858.716796875	14568.177734375	26237.9765625	36117.1015625	24086.880859375	29719.861328125	26677.259765625	30493.40234375	38780.9453125	21083.669921875	28287.9296875	27952.419921875	24561.40234375	23219.185546875	3505.338134765625	21076.7109375	36474.6796875	30754.10546875	34001.41015625	29890.927734375	25369.736328125	33805.453125	9409.5546875	27657.703125	22884.21875	15011.3642578125	25214.060546875	27131.953125	13633.294921875	28619.076171875	17871.18359375	17745.212890625	24072.001953125	30148.310546875	28527.29296875	18767.8046875	25004.873046875	37107.40234375	22235.9765625	27627.919921875	25700.25	29181.908203125	36594.2109375	19864.380859375	25399.880859375	27219.03125	23456.1484375	21647.419921875	5033.5283203125	25540.5234375	34489.28515625	32412.45703125
480	600	24372.083984375	25884.43359375	25127.9140625	32745.037109375	28257.548828125	33136.0546875	32466.65234375	20403.484375	27070.98046875	28023.197265625	26873.708984375	27025.87890625	21213.4296875	26115.181640625	23901.01953125	26767.890625	24872.072265625	31286.970703125	28989.78125	30467.626953125	30270.958984375	27460.548828125	28600.15234375	26852.671875	21382.080078125	22359.125	7382.40966796875	9416.4482421875	29800.287109375	16293.490234375	18003.439453125	9343.2197265625	27060.322265625	29339.603515625	24652.17578125	27853.046875	14261.2744140625	25183.24609375	24267.42578125	14621.3212890625	21402.765625	24388.63671875	13548.0341796875	27181.28125	17900.236328125	18821.4375	19141.455078125	26870.185546875	22368.95703125	13503.345703125	22662.306640625	30605.8359375	20604.564453125	26267.798828125	22959.388671875	25999.318359375	33637.12109375	18484.8359375	24347.126953125	24023.2421875	21596.04296875	19837.880859375	3453.241455078125	19189.099609375	30722.75390625	27204.70703125	30319.95703125	25999.103515625	21502.234375	28419.423828125	8719.521484375	23894.97265625	19768.55078125	13177.314453125	22167.3046875	22966.97265625	12602.2958984375	24627.912109375	15480.373046875	16002.2236328125	21710.478515625	26147.61328125	24250.86328125	17346.39453125	21777.57421875	31264.193359375	18966.71484375	24135.57421875	22011.080078125	25682.00390625	31262.193359375	17052.431640625	22148.23828125	23036.830078125	20762.896484375	18527.935546875	5510.54345703125	22684.978515625	30761.671875	28758.921875
600	900	20978.869140625	22180.271484375	20390.55078125	28552.595703125	23389.98828125	27402.3828125	27027.82421875	18456.234375	23337.6328125	24517.69921875	22634.80078125	22641.599609375	18377.583984375	22462.849609375	20488.30859375	22600.810546875	20123.6015625	27403.673828125	24450.1953125	25456.10546875	26198.841796875	23888.34375	25287.390625	21685.20703125	18766.287109375	20120.994140625	7089.5673828125	8948.01171875	23734.322265625	15548.9619140625	14993.205078125	8906.4111328125	22206.61328125	24046.587890625	20288.359375	22398.583984375	13143.6083984375	20210.69140625	19969.16796875	12431.8427734375	18951.369140625	19639.857421875	12195.6162109375	22009.03125	14364.1015625	15992.740234375	16347.970703125	22082.12890625	18407.30859375	11617.4580078125	18901.404296875	24967.94921875	16971.478515625	22448.361328125	18957.9453125	21623.845703125	26613.146484375	15545.7099609375	19993.56640625	19606.921875	18181.88671875	16360.396484375	3934.04931640625	16380.6669921875	25548.67578125	23156.923828125	24645.671875	22761.708984375	17319.9375	23297.841796875	8189.19775390625	19536.53125	15829.1689453125	11141.0888671875	19388.80859375	18486.978515625	11186.390625	20262.53515625	12845.5888671875	13526.5966796875	18367.982421875	22176.404296875	19632.2265625	15009.2705078125	18691.3359375	25348.251953125	15375.5546875	21056.26953125	17777.0078125	21445.302734375	25865.3203125	14204.2099609375	18269.853515625	18789.326171875	17674.171875	15077.8212890625	6133.63671875	20051.337890625	25745.888671875	24262.859375
900	1200	18403.314453125	18864.5390625	16645.40625	24535.44140625	19440.62109375	22956.859375	22789.259765625	16719.25390625	19854.537109375	21423.7578125	18904.28515625	19794.98046875	15766.470703125	19406.759765625	17938.2578125	19152.71875	16290.6494140625	24011.548828125	20858.033203125	21559.166015625	21513.2265625	20015.654296875	22026.765625	18780.142578125	16294.7724609375	16918.5625	6822.84130859375	8835.578125	18868.291015625	14745.59375	12755.765625	9020.1796875	17938.11328125	20468.728515625	17111.474609375	18740.6328125	12328.75	16493.244140625	16917.8515625	10769.2685546875	16949.021484375	16737.857421875	10950.9111328125	18256.27734375	12546.220703125	13996.453125	13474.958984375	18539.7734375	15696.3740234375	10910.357421875	16487.8515625	21113.38671875	14252.3486328125	19581.5703125	15803.796875	18171.65625	21989.140625	13050.5078125	16697.2734375	16518.2421875	15582.806640625	13822.5703125	3989.642333984375	15701.6640625	21094.150390625	19497.810546875	20530.1484375	19626.962890625	14403.60546875	19697.005859375	7952.43603515625	15830.3525390625	13250.7998046875	9821.0908203125	17308.47265625	15664.33203125	10264.10546875	16635.923828125	11211.4521484375	11888.623046875	15233.4697265625	18731.1953125	16246.6103515625	13631.1181640625	16122.1533203125	21082.353515625	12851.7470703125	18689.279296875	14821.5	18611.087890625	21911.5390625	12093.255859375	15454.66796875	15892.4638671875	15084.947265625	12686.427734375	6397.50341796875	18002.1640625	21694.947265625	20468.09765625
1200	1500	17284.306640625	17196.07421875	14519.6064453125	21618.26953125	17480.25	20710.359375	19882.01953125	15428.3662109375	17670.68359375	20133.884765625	16828.4140625	17267.80078125	14923.3955078125	17715.12890625	16770.87890625	17526.3984375	14168.4765625	21853.48828125	18541.484375	19518.421875	19890.794921875	18449.744140625	19441.810546875	16771.76171875	15222.1435546875	15710.91796875	6842.28369140625	8892.8330078125	16052.6513671875	14280.9296875	11748.3330078125	9174.7646484375	16249.49609375	18325.98046875	15743.27734375	16954.748046875	11346.2333984375	14839.1416015625	15346.775390625	10024.255859375	15486.6044921875	15526.716796875	10575.2578125	16736.669921875	11523.12109375	12895.087890625	12049.41796875	16521.51953125	14040.8173828125	10651.857421875	14936.41015625	19720.849609375	12898.78125	18322.994140625	14436.3515625	16750.70703125	19236.8125	12265.8486328125	15155.291015625	15068.521484375	14394.171875	12461.212890625	4253.92236328125	15285.84765625	19048.630859375	17447.919921875	18602.154296875	18203.458984375	13481.8955078125	18211.408203125	7874.515625	14092.07421875	12138.84375	9390.505859375	16248.126953125	14375.3740234375	9961.044921875	15361.2080078125	10637.470703125	11174.439453125	13463.4267578125	17227.21484375	14828.8125	12749.8076171875	14804.41796875	19675.6875	11770.0166015625	17813.576171875	13489.3896484375	17225.68359375	19800.017578125	11275.283203125	14253.0849609375	14737.1904296875	13985.8125	11594.6884765625	6737.14501953125	16563.89453125	19711.73828125	18251.43359375
1500	1800	16333.9873046875	15919.2861328125	13219.419921875	19918.6953125	16150.771484375	18751.498046875	18410.125	14304.798828125	16275.83203125	18072.068359375	15480.7509765625	15669.4423828125	14022.498046875	15999.318359375	15900.9140625	15967.66015625	12645.1591796875	19609.423828125	17346.263671875	17576.11328125	17532.75390625	17015.240234375	18367.044921875	16254.466796875	13560.8642578125	14874.3583984375	6825.0068359375	8947.6279296875	14211.4453125	13721.5673828125	11002.9384765625	9266.4189453125	14836.7001953125	16948.16015625	14686.3525390625	15639.1396484375	11234.0244140625	13717.9462890625	14324.4619140625	9394.53125	14824.3134765625	14458.0673828125	10379.162109375	15454.7255859375	11056.9892578125	12419.021484375	11628.037109375	15149.6865234375	13303.4345703125	10518.134765625	14220.7412109375	18458.30078125	11860.392578125	17247.42578125	13349.861328125	15722.8291015625	17859.4140625	11454.8583984375	14145.927734375	14216.8876953125	13473.2294921875	11825.46875	4649.697265625	14552.466796875	18233.466796875	16475.6484375	17561.14453125	17313.587890625	12383.8251953125	16901.265625	7533.89990234375	13045.826171875	11578.8955078125	8965.8828125	15493.4541015625	13363.4033203125	9671.0205078125	14322.7353515625	9923.5576171875	10571.96875	12690.1962890625	15628.169921875	13653.5009765625	12380.7802734375	14112.0029296875	18495.61328125	10877.689453125	16600.509765625	12704.95703125	16321.462890625	18479.330078125	10761.9619140625	13271.5888671875	13973.205078125	13123.57421875	11001.6728515625	7047.56689453125	16240.8447265625	18250.044921875	17072.021484375
1800	2100	15506.056640625	14570.166015625	11785.7958984375	17422.169921875	14840.6123046875	17164.7890625	16404.87890625	13541.759765625	14929.669921875	15775.0751953125	13721.703125	15133.830078125	13120.8369140625	15010.4560546875	14980.734375	14671.560546875	11415.53125	17649.3984375	15791.83984375	16413.24609375	15911.01171875	15501.6806640625	17013.267578125	14158.0419921875	12555.6044921875	13603.8134765625	6798.7880859375	8811.0634765625	12108.91796875	13114.107421875	10341.2490234375	9247.375	13619.1416015625	15955.240234375	13466.837890625	14592.61328125	10934.2216796875	12483.5263671875	13711.2119140625	8939.8994140625	14177.9443359375	13655.6328125	10167.3291015625	14480.51171875	10072.677734375	11668.9736328125	10668.650390625	14295.81640625	12278.0849609375	10046.2060546875	13262.2578125	16888.71484375	11428.0361328125	16629.1640625	12554.8056640625	14708.30859375	16657.953125	10891.8837890625	13070.935546875	13190.1083984375	12521.828125	11009.8359375	4796.7421875	14162.9228515625	16426.224609375	15254.3837890625	16538.826171875	15998.6630859375	11265.6123046875	15804.7001953125	7533.9423828125	11981.3603515625	10675.3349609375	8392.1279296875	14403.3310546875	12462.8564453125	9454.0458984375	13246.5576171875	9386.42578125	10178.736328125	11573.87109375	15049.3095703125	12725.6337890625	12194.03125	12909.4921875	17329.591796875	10309.8720703125	16289.2265625	11454.451171875	15203.2578125	17436.216796875	10067.1455078125	12242.2353515625	12822.04296875	12472.623046875	10492.8125	7248.40673828125	15072.4013671875	17641.611328125	15911.44921875
2100	2400	14668.96484375	13429.5419921875	10745.330078125	15850.9189453125	13460.1181640625	15964.41015625	14720.388671875	12486.0908203125	13659.955078125	14462.677734375	12530.2294921875	14684.7041015625	12105.8427734375	14104.7744140625	14175.4853515625	13495.9111328125	10276.3583984375	16013.2099609375	14708.4130859375	15150.4765625	14342.6474609375	14398.0458984375	15100.669921875	12830.16015625	11552.861328125	13401.27734375	6669.22607421875	8702.69140625	11082.4375	12701.21484375	9782.8935546875	9141.451171875	12873.318359375	14977.517578125	12654.75390625	13791.197265625	10122.322265625	11647.791015625	12812.8212890625	8481.966796875	13234.9912109375	12781.9423828125	9736.5185546875	13341.55859375	9529.8564453125	11034.361328125	9759.6787109375	13247.4189453125	11766.67578125	9640.56640625	12590.486328125	16079.9228515625	10631.2998046875	15575.375	11780.3447265625	13876.3134765625	15491.6044921875	10282.537109375	12108.771484375	12431.673828125	11575.8505859375	10336.1923828125	4612.65966796875	13052.6103515625	16024.4619140625	14210.646484375	15289.1943359375	15392.0009765625	10455.75	14966.5107421875	7481.22998046875	11138.080078125	10024.142578125	8034.4091796875	13736.6376953125	11567.5234375	9122.4541015625	12552.7021484375	8841.4326171875	9781.5419921875	10865.7119140625	14402.7978515625	11952.1259765625	11420.265625	12142.3447265625	16756.8515625	9704.677734375	15307.3828125	10740.40234375	14365.4248046875	16080.8427734375	9742.294921875	11531.072265625	12137.955078125	11614.509765625	9703.125	7372.66357421875	14338.0458984375	16383.3544921875	14731.818359375
2400	2700	13918.134765625	12121.310546875	9780.2060546875	14753.640625	12736.1953125	14807.068359375	12807.2333984375	11574.6220703125	12808.8056640625	14231.7158203125	11814.7490234375	13039.1005859375	11196.2109375	13435.28515625	13446.0966796875	12281.044921875	9431.6865234375	14679.8251953125	13417.9755859375	14029.935546875	13672.34375	13587.814453125	14026.6982421875	13525.3994140625	10765.9619140625	12194.771484375	6526.36669921875	8592.9189453125	9617.759765625	12076.5166015625	9247.8798828125	9126.2607421875	11937.564453125	14530.2880859375	11704.0673828125	13115.8427734375	9964.4794921875	10933.484375	11924.5859375	7983.21826171875	12626.8779296875	12119.6357421875	9533.1953125	12978.2685546875	8913.4990234375	10530.958984375	9690.1357421875	12785.0283203125	10869.6630859375	9492.5380859375	11837.525390625	15310.6943359375	10016.962890625	14573.107421875	10805.5498046875	13102.49609375	14480.974609375	9676.5126953125	11477.880859375	11857.0322265625	11168.44921875	9708.2587890625	4918.568359375	12935.0869140625	14523.6923828125	13409.9833984375	14357.6298828125	14607.5185546875	9799.205078125	14064.208984375	7645.85400390625	10354.578125	9527.8603515625	7670.32666015625	13275.0703125	11063.28125	8879.55078125	11472.21484375	8585.3076171875	9554.306640625	10385.873046875	13627.259765625	11033.4462890625	10834.7998046875	11552.62890625	14897.99609375	9261.109375	14494.859375	10165.896484375	13804.9111328125	15230.0029296875	9325.0224609375	10713.0556640625	11392.2275390625	10981.5458984375	9348.5234375	7826.77099609375	14154.64453125	15866.8173828125	13709.95703125
