frame_start	frame_end	parasubiculum	HATA	fimbria	hippocampal_fissure	HP_tail	presubiculum-head	presubiculum-body	subiculum-head	subiculum-body	CA1-head	CA1-body	CA3-head	CA3-body	CA4-head	CA4-body	GC-ML-DG-head	GC-ML-DG-body	molecular_layer_HP-head	molecular_layer_HP-body	Lateral-nucleus	Basal-nucleus	Central-nucleus	Medial-nucleus	Cortical-nucleus	Accessory-Basal-nucleus	Corticoamygdaloid-transitio	Anterior-amygdaloid-area-AAA	Paralaminar-nucleus
0	30	3.01411	0.16873	9.95862	7.46963	2.11129	4.55511	7.37499	2.09955	9.96475	3.66738	17.42162	1.42198	6.40941	7.47613	9.12277	5.88242	10.00918	4.48874	10.44351	3.64441	3.18746	0.65208	0.16385	0.06504	0.42052	1.22153	4.81634	6.8645
30	60	27.50199	16.51545	16.43546	19.53911	27.60233	16.7987	24.2373	8.80141	13.7744	17.01603	13.40849	21.02595	16.65328	22.61654	13.49444	22.41771	13.73058	16.00569	16.33229	6.35759	11.73128	23.68576	34.72137	39.72129	23.46146	30.28792	25.3634	5.58311
60	90	2643.60963	2180.29273	3202.63134	3414.25892	2911.26178	2790.75851	3795.74534	2420.15337	3153.82553	1950.94226	2592.45228	3800.71065	3198.7084	3263.15071	3363.58409	2908.00085	3389.63759	2486.68964	3323.39526	1807.00604	2362.31511	2168.06604	2043.56354	1989.32451	2509.21993	2814.17513	3167.26412	1965.90885
90	120	8613.68492	8058.88297	9850.99996	9605.7259	9583.1161	9594.67633	11519.65336	8103.4152	10247.28812	7388.47465	7549.81543	8904.28624	8351.992	8657.53436	10110.79655	8472.46532	10070.57512	8083.37303	9757.07198	7529.7046	8034.13118	7738.80113	6976.55591	7588.31984	8110.77246	8471.99472	9990.21368	6890.58454
120	150	16786.1733	14069.25958	15830.1298	17195.76536	16339.81313	17865.25632	19504.12811	15184.96203	16147.23446	13967.93497	14338.32875	15860.18106	15096.04041	16933.17469	16377.886	16257.57066	16303.07033	15793.80271	16431.86729	13658.80321	14333.02628	15692.03163	14891.00952	14015.53312	15364.96581	15464.28104	17670.9622	12336.10703
150	180	21795.10101	19312.04974	25641.47533	24269.77169	23455.76908	23995.89264	26795.8821	22388.63752	24509.47315	22096.0912	19565.75275	23633.1094	22140.17821	23267.75036	25014.65223	22764.00281	24948.80537	23492.09901	24336.15155	22157.2139	21506.98182	21655.18281	20944.60221	20117.58332	20368.57741	20265.1489	24010.81308	21404.48542
180	240	24799.99223	23224.13951	31090.23019	28664.73414	28242.22812	28276.9756	30593.33092	28851.56277	31277.70304	25968.83654	25838.58493	24858.81387	27964.53968	27232.13125	31389.90552	26779.82323	31129.94225	27668.98551	30276.97488	27031.82161	27723.65372	26595.34412	26116.43441	25793.26988	26441.20569	24367.47432	26869.87377	27868.18868
240	300	28220.58239	26298.86288	31972.66102	31342.67975	30009.46393	31705.86403	33514.38298	30861.12631	32775.58234	28001.46956	27527.34987	28764.50848	28999.53136	31282.67542	32658.92609	30303.28787	32396.81096	30705.62981	31973.17236	28421.25396	28280.77819	29107.22196	28276.52344	27724.7891	27643.33683	25853.154	27630.52048	27539.34324
300	360	28276.22388	27438.66714	32739.58192	30291.49017	29928.81556	31497.90484	31814.08448	30734.89398	32787.17132	28574.11611	27548.17011	26300.05924	29110.44331	29250.36143	32380.22116	29240.44633	32252.154	30057.19756	31663.58401	30209.73119	30370.31036	29186.15816	29095.01579	30428.23293	30574.28471	27329.01684	27159.46126	29442.06661
360	480	26286.89372	24430.99255	30290.15667	28618.34177	27785.00923	29830.55072	29301.14103	30286.59959	30221.18712	27004.90137	26396.72785	23976.93586	26560.02662	27682.69772	29728.81999	27395.81805	29591.6699	28733.12266	29183.49169	29499.54267	28827.74716	27651.21838	26708.80143	28196.45828	27265.38166	24928.70828	27146.10912	28073.27992
480	600	24485.73242	22815.69757	27381.56262	27139.13123	24600.34664	28895.22374	27842.99257	27956.36515	27738.87457	25519.04583	22440.63109	22975.52849	23593.74538	27165.42125	26213.01122	26922.90117	26384.19179	27213.9097	26099.57082	28139.51684	26838.77387	25086.65749	26107.32731	25635.12176	25792.42543	23253.31723	25250.9524	25054.04105
600	900	19460.56179	20179.84132	23299.34127	22186.56527	20646.08131	23134.71203	22330.37851	24027.76964	23439.44767	22092.68726	19927.19327	19682.10156	20470.38162	22925.52055	22406.85296	22505.43678	22418.69344	23120.67961	22148.25018	25129.79717	23719.14945	22666.35284	23074.51074	23866.83805	23072.94988	20380.48678	22002.75453	22134.36667
900	1200	15443.55738	17924.93566	18459.88748	17916.45402	17452.02782	18717.83676	17387.75744	19086.06883	18512.77484	18024.45202	17105.11249	15796.00476	17177.51936	17951.28689	17819.53692	17903.07576	17836.79494	18532.04153	17760.20113	20364.68071	19843.34928	19111.62337	19178.4987	20242.27195	20156.42741	17704.96843	18649.43805	17567.59489
1200	1500	13165.71225	13992.85213	16230.71199	15074.09146	14246.20162	15308.13072	14543.9214	16624.26202	15370.84683	15439.67992	14734.2401	14151.53095	14892.59467	15424.85055	15049.9768	15460.98158	15082.78234	15834.43792	14969.65548	17923.70723	16474.13682	16080.48702	16113.86743	16218.94437	15793.18671	13984.97055	15014.94245	15020.4358
1500	1800	11216.41943	13060.41358	14346.09816	13159.97807	12812.52562	13283.23052	13025.01917	14438.21477	13898.45883	12975.066	13045.50407	12460.98629	13220.84458	13545.80277	13408.92979	13415.47254	13408.07206	13485.12025	13310.62473	15893.76987	14426.98473	14447.69202	15062.99259	14928.54652	14138.31726	12443.25421	13685.77984	12738.30967
1800	2100	9970.69467	11612.82383	12623.63041	11510.83425	11608.73319	11797.87595	11299.63591	13126.43957	11857.67593	11685.98847	12248.80677	11013.33954	11813.14631	11629.22311	11642.63675	11601.25905	11749.74353	11976.3889	11763.24178	13792.37615	12011.07845	12984.55569	13412.95467	13199.04066	12168.65089	11107.7466	11908.82483	11240.61907
2100	2400	9107.3404	10145.78787	12222.05646	10488.45085	10487.19965	10375.53401	10585.11514	11323.92755	11814.81518	10479.37433	11363.76207	10176.713	11438.39662	10146.43924	11403.16931	10336.30124	11432.72176	10520.72525	11329.84239	12363.7507	11392.60471	11756.68761	11559.3741	11041.05594	10994.70773	9750.77463	10471.37821	9635.25254
2400	2700	8277.22612	8824.40255	11172.98294	9264.79964	9557.61841	9378.88398	9324.79915	10326.76053	9953.38635	9146.95084	10402.86728	9045.6813	10494.094	8685.80266	9831.44214	8880.17154	9913.5726	9269.31655	9937.32502	11206.35128	10064.88582	10786.68364	11472.16496	11191.64064	9713.9142	8217.19997	9565.29301	8720.25528
2700	3000	7756.88588	8473.28091	9556.15346	8617.69757	8481.1835	8660.76827	8791.32311	9577.80383	9452.97258	8693.68942	9826.214	8289.50129	9533.98675	8228.73695	9045.07323	8486.16565	9177.02575	8735.09796	9182.19188	10290.95182	8555.20076	9651.98952	9617.56372	9556.58354	8729.35888	7769.9759	8889.96419	8031.91774
3000	3300	6820.36925	7890.10145	9178.18931	7693.99121	8038.89511	7448.65431	7821.29121	8529.80505	8483.17892	7667.964	8489.68541	7339.07266	8497.00934	7283.49414	8246.37058	7443.68871	8291.78638	7672.59536	8190.53181	8859.90021	7844.23762	8436.05075	8286.5035	8228.5366	7878.8076	7208.79362	7165.44151	7445.72009
3300	3600	6376.803	7353.12337	7650.30544	6997.07105	6964.48841	7353.96081	6958.03123	8434.73972	7474.1331	7052.92873	8118.39139	7147.02378	7289.11445	6843.99624	6884.27632	6897.37054	7049.1459	7185.6222	7163.74642	8534.37434	6785.36946	7347.63306	7368.38566	7024.01226	6564.18125	6210.57701	6825.50269	6532.4513
3600	3900	6065.3635	5972.13647	7316.40603	6698.58163	6831.34705	6726.41494	7140.17363	7022.5943	7502.98781	6509.41677	7383.59552	6203.54829	7407.12563	6629.95208	6902.66602	6605.17723	6951.65557	6527.96998	7179.26832	8382.59368	6161.05644	7475.02436	7513.16532	7313.03278	6130.67234	5203.94322	6529.48895	5651.58846
3900	4200	6240.12676	5775.13403	6839.73949	6101.94926	6513.06057	6632.01866	5921.75951	6941.92486	6934.6395	6207.28231	7388.11792	5825.83425	7048.53804	5534.63466	6442.35443	5846.58254	6488.40499	6245.9983	6521.90014	7026.00683	5894.83542	6819.25821	7470.47034	7003.58732	5572.93216	5433.72257	6549.52197	5906.26237
4200	4500	4731.31095	5737.21541	5768.73156	5207.8178	5847.42301	5646.79668	5286.27196	6519.4118	6231.77774	5325.83541	6930.0945	5166.9482	5884.33787	5167.13114	5682.7368	5210.0588	5701.14268	5449.22842	5835.8595	6234.67122	4859.07342	6309.52719	7037.50916	7145.73756	5973.21363	5522.75133	5434.45332	4690.65576
4500	4800	4368.59384	5263.91349	6266.02909	5519.62261	6153.94816	5164.99951	5956.22843	6208.96046	6352.4622	5386.82695	6526.92235	5487.33864	6289.29805	5988.4831	6039.49677	5766.29596	6087.35513	5550.51025	6141.21518	6553.43414	5451.66274	6130.18849	7085.80339	6306.40302	5230.22306	4640.79229	6231.10156	5327.31377
4800	5100	5186.25286	5676.89838	5572.95218	5178.79898	5204.89448	5107.83896	5658.43215	5601.5857	5949.04946	5131.45916	5823.09577	5579.71042	5619.06897	4312.71268	5511.72512	4494.45002	5645.84633	5084.82267	5705.69453	6763.27909	5124.91503	5574.03833	5592.87065	5204.39433	4920.84416	4850.32617	6304.40069	5177.02358
5100	5400	4669.29497	4604.07607	5100.98077	4637.45837	4614.43499	4685.88272	5441.66456	4917.97316	5743.25022	4940.71371	5422.54386	4602.93118	4801.11797	4146.72661	4731.39286	4504.7557	5003.80207	4705.28385	5227.4785	5720.30404	4874.94874	5392.51886	4962.07898	4904.74148	4378.78956	4283.78103	4561.13772	4077.16072
5400	5700	4476.27319	4777.93973	5734.94663	4860.69455	5617.84108	5158.82011	4513.81193	5338.73334	5150.12157	4660.32696	5086.13624	4982.01641	5445.33925	4660.64905	4977.13537	4729.52721	4919.60753	4888.84188	4865.45467	6097.98042	4780.7132	6063.05846	6770.78687	6712.97548	4344.17986	4403.46947	4793.94758	5478.55474
5700	6000	3445.99104	3692.07382	5045.07308	4567.73998	4090.40621	4500.82055	4371.05852	4872.2531	4665.20279	4026.54194	5548.6761	4454.58314	5688.84776	4165.87064	4655.00278	4366.78643	4629.49001	4076.5707	4790.31214	5078.21703	4707.4859	5037.70642	4650.03457	3453.23706	3733.19914	3337.54978	4420.43766	3839.06032
6000	6300	3516.6482	4030.30833	4117.68909	4431.92979	3911.92265	3819.70545	4273.64643	4588.46161	4477.7522	4407.8102	5461.12241	4244.21561	4703.02437	4786.92235	4206.96431	4808.82314	4353.01472	4411.7863	4485.42248	5715.46685	3756.73254	3724.00005	3683.71486	3840.80721	3302.6166	3489.51277	3083.96414	4426.861
6300	6600	3849.72708	4014.50052	3227.10538	4517.58598	4083.65316	4818.05374	3938.45128	5365.24981	5013.81455	4565.79257	4874.0199	4709.80814	3602.80476	4989.95434	4021.98878	4908.08029	3869.67563	4816.57948	3995.00887	4192.15189	3331.79579	7193.78433	4320.7334	5332.91068	4328.6252	3434.08242	4191.99047	3310.12208
6600	6900	4134.01893	4267.77	3819.14558	3752.9877	4626.22432	3456.23322	3557.64298	3185.33813	3989.44853	4327.22967	4622.8221	3568.6686	3964.35228	3145.17024	3694.42933	3599.1894	3722.56259	3456.46707	3804.03136	4722.80907	3922.32759	4077.76365	4837.742	4783.24873	3594.03863	4267.63092	4362.40958	4536.90688
6900	7200	3430.77401	2142.64998	5134.0679	3912.85529	4382.74276	3958.7089	3875.56796	3794.23782	5195.54748	3122.42599	5045.73903	3905.89683	4692.58712	2806.13295	4642.14045	3111.67596	4663.6074	3240.7376	4508.467	4597.59507	3418.82746	4005.54992	3524.14376	3284.7951	2852.63365	2045.60112	4774.75771	2238.55954
