frame_start	frame_end	Left-Cerebral-White-Matter	Left-Cerebellum-White-Matter	Left-Cerebellum-Cortex	Left-Thalamus	Left-Caudate	Left-Putamen	Left-Pallidum	Brain-Stem	Left-Hippocampus	Left-Amygdala	CSF	Left-Accumbens-area	Left-VentralDC	Left-choroid-plexus	Right-Cerebral-White-Matter	Right-Cerebellum-White-Matter	Right-Cerebellum-Cortex	Right-Thalamus	Right-Caudate	Right-Putamen	Right-Pallidum	Right-Hippocampus	Right-Amygdala	Right-Accumbens-area	Right-VentralDC	Right-choroid-plexus	AirCavity	Skull	Vermis	Pons	CSF-ExtraCerebral	Head-ExtraCerebral	ctx-lh-bankssts	ctx-lh-caudalanteriorcingulate	ctx-lh-caudalmiddlefrontal	ctx-lh-cuneus	ctx-lh-entorhinal	ctx-lh-fusiform	ctx-lh-inferiorparietal	ctx-lh-inferiortemporal	ctx-lh-isthmuscingulate	ctx-lh-lateraloccipital	ctx-lh-lateralorbitofrontal	ctx-lh-lingual	ctx-lh-medialorbitofrontal	ctx-lh-middletemporal	ctx-lh-parahippocampal	ctx-lh-paracentral	ctx-lh-parsopercularis	ctx-lh-parsorbitalis	ctx-lh-parstriangularis	ctx-lh-pericalcarine	ctx-lh-postcentral	ctx-lh-posteriorcingulate	ctx-lh-precentral	ctx-lh-precuneus	ctx-lh-rostralanteriorcingulate	ctx-lh-rostralmiddlefrontal	ctx-lh-superiorfrontal	ctx-lh-superiorparietal	ctx-lh-superiortemporal	ctx-lh-supramarginal	ctx-lh-frontalpole	ctx-lh-temporalpole	ctx-lh-transversetemporal	ctx-lh-insula	ctx-rh-bankssts	ctx-rh-caudalanteriorcingulate	ctx-rh-caudalmiddlefrontal	ctx-rh-cuneus	ctx-rh-entorhinal	ctx-rh-fusiform	ctx-rh-inferiorparietal	ctx-rh-inferiortemporal	ctx-rh-isthmuscingulate	ctx-rh-lateraloccipital	ctx-rh-lateralorbitofrontal	ctx-rh-lingual	ctx-rh-medialorbitofrontal	ctx-rh-middletemporal	ctx-rh-parahippocampal	ctx-rh-paracentral	ctx-rh-parsopercularis	ctx-rh-parsorbitalis	ctx-rh-parstriangularis	ctx-rh-pericalcarine	ctx-rh-postcentral	ctx-rh-posteriorcingulate	ctx-rh-precentral	ctx-rh-precuneus	ctx-rh-rostralanteriorcingulate	ctx-rh-rostralmiddlefrontal	ctx-rh-superiorfrontal	ctx-rh-superiorparietal	ctx-rh-superiortemporal	ctx-rh-supramarginal	ctx-rh-frontalpole	ctx-rh-temporalpole	ctx-rh-transversetemporal	ctx-rh-insula
0	30	9.644006729125977	3.1130666732788086	1.1741938591003418	11.923196792602539	-2.816019058227539	15.351296424865723	3.613018751144409	-0.3638470768928528	3.7339673042297363	22.192550659179688	2.9933574199676514	8.0493745803833	8.560040473937988	-22.639820098876953	8.468453407287598	0.15845607221126556	3.573462963104248	3.7872259616851807	7.928418159484863	8.925941467285156	17.87213897705078	14.071385383605957	62.19490432739258	33.47001647949219	18.79250144958496	18.927934646606445	-13.040342330932617	29.618633270263672	8.670368194580078	0.183014377951622	-1.425514578819275	0.692796528339386	-10.0320405960083	15.438411712646484	52.37937927246094	38.359580993652344	38.97400665283203	14.341472625732422	10.153351783752441	-1.762366771697998	-0.6229937672615051	-20.44528579711914	4.31541633605957	6.9491658210754395	10.062223434448242	-1.5589455366134644	19.650304794311523	26.437915802001953	3.6803348064422607	-28.662626266479492	71.93981170654297	6.8431806564331055	22.8132266998291	59.1407585144043	16.798200607299805	25.859783172607422	23.327651977539062	9.602615356445312	30.949689865112305	16.350202560424805	3.571349620819092	7.808865070343018	63.121131896972656	-23.617101669311523	51.48395538330078	14.050924301147461	-1.7447474002838135	17.597986221313477	63.51298141479492	14.663643836975098	11.600933074951172	-1.9180607795715332	34.03771209716797	5.6656174659729	-16.410215377807617	-8.698286056518555	4.949007987976074	-0.9783576130867004	9.049445152282715	3.6348397731781006	-3.6835825443267822	38.41160202026367	43.34987258911133	-29.058820724487305	79.34988403320312	17.177949905395508	62.151153564453125	-9.972189903259277	35.67860412597656	42.237239837646484	-10.825109481811523	23.346988677978516	34.46460723876953	4.623231410980225	73.83660888671875	13.811700820922852	55.804107666015625	-18.874984741210938	-47.32186508178711	65.1254653930664
30	60	1623.6064453125	3740.787109375	5831.2421875	7026.474609375	8207.244140625	9371.9111328125	2301.385009765625	4391.30322265625	6232.9677734375	6576.9775390625	2191.789794921875	13189.7177734375	6350.85205078125	23629.98046875	1958.968994140625	3102.837646484375	6041.03662109375	7486.59716796875	8869.7509765625	8523.0439453125	3771.23681640625	6825.6240234375	5882.4912109375	6061.62841796875	6051.35205078125	15136.93359375	288.0760498046875	1392.3994140625	7976.65234375	4464.69970703125	4834.35302734375	1049.6488037109375	7495.08935546875	10663.5751953125	9864.560546875	11428.255859375	8503.6533203125	7943.34423828125	8430.345703125	8054.50927734375	10208.51171875	9005.755859375	10066.3701171875	7155.7119140625	11693.189453125	7350.29296875	5310.50732421875	8611.84375	11385.1962890625	9201.2001953125	11417.3515625	14309.1064453125	9121.5107421875	10035.3984375	9442.9208984375	9318.2236328125	9067.2001953125	11079.064453125	9991.1513671875	6697.7958984375	7398.52294921875	10321.7216796875	9980.2275390625	4912.89306640625	12158.109375	8399.2265625	8293.0869140625	7416.490234375	8763.318359375	10410.1630859375	10491.18359375	6277.6396484375	8042.05908203125	7030.29638671875	8096.50537109375	9972.2373046875	10128.9580078125	10079.2060546875	8485.05859375	6269.650390625	4507.02685546875	6763.658203125	9435.7802734375	8052.86865234375	8630.962890625	13766.7421875	8131.9560546875	10350.1474609375	8303.494140625	9402.5478515625	10044.07421875	9136.72265625	8150.29150390625	7263.06005859375	7801.2001953125	9954.0322265625	12243.09375	5975.20166015625	10872.240234375	9247.2294921875
60	90	5116.19482421875	11143.3017578125	18977.732421875	21528.849609375	27214.3828125	29170.478515625	9447.5205078125	12396.1298828125	18769.31640625	19227.388671875	5423.48974609375	21168.9765625	17301.28125	50030.4375	5979.7802734375	11549.876953125	18922.033203125	22475.91796875	25646.1875	26572.27734375	11292.88671875	19984.7421875	14484.462890625	30098.216796875	13140.84375	36411.73828125	887.5930786132812	4071.664306640625	20735.466796875	14446.3779296875	9394.9052734375	3427.22412109375	24296.580078125	31990.8671875	31906.96875	35857.25390625	21386.8984375	23164.451171875	26863.50390625	24905.068359375	29428.138671875	28524.583984375	29904.345703125	27489.212890625	34951.9296875	25102.451171875	14491.3984375	23938.30859375	31670.015625	28299.724609375	34957.7421875	44264.27734375	30372.72265625	32204.388671875	29590.15625	29906.943359375	27164.04296875	34415.3359375	30271.279296875	25756.970703125	23879.44921875	30788.310546875	37028.59765625	16007.4091796875	36723.0	23720.994140625	27976.216796875	17397.123046875	29804.05859375	36976.234375	23238.767578125	22115.197265625	28216.841796875	22285.373046875	23428.888671875	33041.5546875	30924.263671875	27960.615234375	25801.732421875	22926.35546875	10196.3427734375	25575.640625	31031.19921875	27887.056640625	26065.134765625	43815.4296875	28377.662109375	23338.064453125	28187.3359375	28475.9375	22331.5546875	31083.49609375	28130.212890625	27463.447265625	22130.2578125	29465.69140625	33652.53515625	14449.05078125	44854.8359375	22362.263671875
90	120	9082.857421875	18604.396484375	33464.78515625	40138.796875	46673.8515625	55988.1015625	14377.8486328125	19509.244140625	33420.6796875	31557.736328125	8774.4814453125	45685.8046875	26221.8515625	92901.453125	10308.9140625	18326.498046875	33771.9375	37939.04296875	51502.6171875	50019.546875	21263.53515625	33770.29296875	21184.046875	33494.1015625	28127.25	67941.3203125	1325.8092041015625	6757.40478515625	44054.26953125	26712.740234375	13657.056640625	6225.63134765625	47062.3125	54635.1171875	61661.8515625	67263.15625	31310.640625	38788.42578125	48145.21875	42814.82421875	47020.125	51877.62890625	53431.24609375	47132.44140625	55913.6171875	42492.47265625	29430.193359375	46351.0234375	55744.85546875	57505.8671875	60065.0859375	81330.9453125	54354.79296875	54922.9765625	52342.0859375	54436.47265625	48848.97265625	63286.390625	53731.99609375	50073.25390625	43174.203125	55519.24609375	62576.10546875	25996.810546875	66044.7421875	38852.078125	49500.77734375	38239.828125	59278.80859375	63636.76953125	39713.2734375	36087.1328125	52398.6953125	39677.5	46143.3984375	59877.1015625	53482.90234375	50605.2265625	49694.171875	39639.93359375	22273.216796875	47658.68359375	52445.1171875	51530.33984375	52277.00390625	79816.171875	53002.0625	45453.52734375	50807.55078125	51155.19140625	41599.27734375	56681.44921875	51461.68359375	51719.94140625	40286.48046875	53613.94140625	70313.46875	24368.3515625	68978.8828125	38604.63671875
120	150	12957.22265625	26359.43359375	47971.36328125	53569.77734375	67888.234375	73652.203125	24403.552734375	28422.830078125	46187.4765625	36552.859375	11251.033203125	69689.5859375	39756.8671875	121159.6953125	13712.0498046875	23941.796875	48645.77734375	56927.9296875	68625.5703125	74474.96875	28331.37890625	47343.578125	31212.90234375	41857.53125	36101.484375	96742.1953125	1922.599609375	8957.1865234375	57832.33984375	37055.03515625	15210.03125	8940.8251953125	71003.1015625	64495.82421875	84517.2421875	85652.8984375	47873.96875	58974.3203125	70360.5390625	58096.67578125	65201.609375	72265.59375	74027.2421875	66698.8125	77666.9375	62520.6640625	37813.22265625	63684.35546875	78852.265625	79210.5	79542.09375	111920.953125	78338.296875	69821.0703125	75834.265625	78079.8046875	62357.375	89154.703125	76536.4921875	73525.171875	59534.203125	77726.6953125	94463.1328125	40172.3515625	83533.609375	51174.734375	67168.3984375	59816.65625	79266.71875	93820.65625	53465.92578125	56021.21875	75418.25	58276.6640625	65207.2421875	83762.2265625	72489.3046875	69888.3984375	66462.2578125	61755.0234375	23970.8828125	73160.65625	72856.578125	79137.6484375	76308.8671875	113090.859375	76383.8828125	75201.6484375	73319.75	75861.5	55909.01171875	81582.078125	74487.0859375	75423.3671875	58269.92578125	73712.2734375	97513.2265625	39595.40625	105038.2890625	46586.5078125
150	180	14348.7314453125	28656.310546875	52906.00390625	58983.49609375	75202.5859375	85199.9140625	33231.13671875	31105.060546875	51155.63671875	38491.046875	9855.5458984375	82791.6484375	41030.23046875	131812.96875	14380.5478515625	25960.681640625	53867.0703125	62429.41015625	81027.109375	80714.0390625	31837.6015625	48812.39453125	33399.96875	43239.82421875	39963.35546875	94741.8125	1839.140625	9267.703125	70439.3125	41396.54296875	11950.8671875	10165.05859375	78910.546875	61897.08203125	94789.65625	93237.71875	47066.65234375	62716.72265625	79038.1484375	65004.5703125	66301.9609375	78909.6015625	84936.625	74772.7265625	84499.53125	70331.125	40796.90234375	74853.953125	88280.03125	80672.3359375	87526.140625	126856.3046875	86436.2265625	81089.5234375	84047.359375	86262.203125	61053.65234375	97046.4140625	84707.40625	85270.7890625	63399.90625	88607.2109375	99234.8671875	47604.296875	102282.953125	55409.51953125	78768.1875	78612.53125	91207.0	105411.2734375	53959.6796875	60329.8984375	85636.953125	66466.0078125	68137.0234375	94351.3515625	80709.515625	77813.4453125	76409.90625	70501.8203125	29057.775390625	83792.796875	82108.59375	85459.78125	85757.8203125	128274.8046875	85562.7890625	78609.2890625	82350.9140625	86891.9453125	65484.9765625	91731.7890625	83154.7890625	86789.9453125	63211.0390625	82929.640625	103984.1171875	42744.0859375	117757.359375	51126.96875
180	240	15284.671875	29743.10546875	53056.53125	62316.05859375	77681.5703125	86826.0546875	27574.3125	33323.5546875	49677.8203125	39984.4140625	8634.2353515625	71822.5	42038.5	113034.6484375	15473.09765625	26092.185546875	54790.1484375	63289.05078125	79239.4453125	82178.3203125	32783.41015625	50070.765625	37615.3046875	59360.05078125	40596.6875	80871.3828125	1687.1763916015625	9499.77734375	67233.6484375	42270.51953125	8955.5556640625	10832.1572265625	79668.1015625	70419.734375	95948.9375	98869.5234375	53078.1171875	65150.4921875	81184.1328125	66808.375	67743.8125	79353.6484375	85093.3515625	77756.2890625	85151.21875	70431.5625	43586.2578125	74877.1640625	86337.71875	87060.5234375	86408.9765625	123995.46875	87806.109375	84800.84375	84966.0234375	86592.28125	63862.47265625	98367.3203125	84564.8125	85510.8046875	66475.1640625	87129.984375	96603.890625	43868.69140625	92819.453125	55905.609375	75404.1796875	71106.8359375	89367.265625	106301.625	53306.9609375	63364.87890625	88912.7421875	67882.453125	64970.078125	93685.609375	81983.8984375	77744.328125	76317.4375	72328.8125	31201.30078125	86459.9140625	80105.2734375	89999.7734375	83830.0703125	119085.2265625	86919.8125	71818.296875	83707.484375	87561.140625	61731.296875	92065.2578125	84565.15625	90396.40625	66498.171875	83926.65625	102736.640625	48221.74609375	109313.390625	53346.63671875
240	300	15955.23046875	27859.0390625	51711.35546875	61697.71875	73080.9765625	77892.8125	32144.90625	33023.75	45776.03125	43468.26953125	6450.60205078125	77948.5546875	42787.046875	88548.546875	15921.43359375	26800.765625	53051.69140625	62685.3203125	75646.546875	79948.046875	29933.693359375	47917.765625	37910.17578125	57402.19921875	43437.21484375	65860.6640625	2092.135986328125	9193.802734375	59881.515625	43303.484375	5745.17578125	11388.2568359375	77289.1953125	66025.328125	89306.90625	87836.1015625	53637.47265625	61821.05859375	76619.390625	67165.6328125	65557.5390625	76230.78125	79418.0546875	74755.1796875	78441.40625	67760.0625	46983.890625	75766.6640625	80690.7265625	81114.734375	80666.3984375	111291.078125	84286.53125	77896.0859375	80788.8046875	82184.7734375	63918.36328125	92191.9296875	80298.75	82303.15625	63072.11328125	81255.6484375	100272.6953125	48879.921875	85920.5703125	58108.0390625	72348.8203125	69800.6484375	85547.9921875	99236.0	52180.5859375	61953.37109375	84444.6796875	67511.4296875	61674.9921875	89836.625	75756.4296875	75530.890625	74661.4609375	70437.296875	32848.28125	77028.5703125	75737.546875	85965.390625	79547.9296875	108559.3125	83975.765625	71451.2421875	81295.328125	82062.4375	62625.359375	87410.40625	80483.1875	86443.2265625	63838.3984375	78571.5234375	102057.90625	49710.9921875	100457.3671875	50787.06640625
300	360	16580.650390625	27582.763671875	48614.87890625	56769.3828125	69932.8515625	73830.6796875	30938.177734375	31611.49609375	42280.8984375	41745.55078125	4737.595703125	78328.6640625	41772.546875	74526.5625	16058.853515625	25864.859375	49810.75390625	58377.35546875	70328.640625	72335.0	30588.501953125	45242.27734375	36161.515625	49162.19921875	43780.63671875	51868.96875	1844.7413330078125	9240.4765625	54884.2109375	40584.01953125	2967.052001953125	11361.9111328125	65300.53125	61816.16015625	79382.140625	82824.171875	55740.70703125	57287.65234375	69807.375	62157.15234375	61872.3203125	69803.09375	74633.609375	69013.46875	73510.421875	65221.0859375	50195.296875	71125.0078125	73439.9921875	72466.0703125	73849.046875	98253.515625	74925.390625	73125.921875	73322.1015625	73231.1875	56721.90625	84351.828125	74505.25	77504.4765625	61106.73046875	74564.953125	91904.1328125	48860.7265625	76219.6796875	54238.24609375	70552.0234375	69864.2109375	78746.046875	91156.75	52106.3125	57721.125	77104.3046875	62537.16015625	59920.33203125	82893.1796875	71006.7578125	69672.2734375	70017.875	65016.3359375	35610.20703125	76498.15625	68129.796875	77018.6328125	75805.78125	99333.5703125	75221.2890625	66981.21875	76761.921875	76868.4609375	62518.23046875	81339.7578125	74514.7265625	82316.2109375	59474.203125	73212.265625	92431.5078125	47654.76171875	89995.8515625	49641.89453125
360	480	17025.615234375	27096.4140625	43001.41796875	52926.8984375	61009.0703125	65314.01171875	32157.693359375	30883.291015625	38483.66015625	40474.6640625	3407.427734375	62130.328125	39266.87890625	55737.74609375	17000.650390625	24693.392578125	45144.49609375	53714.3671875	61954.91015625	61012.90234375	36248.9140625	38167.8984375	39600.0390625	44247.8984375	40346.0859375	37792.0	1639.2550048828125	9403.46484375	49469.5546875	37834.4453125	968.5802001953125	11344.794921875	61123.7109375	60207.61328125	67599.46875	74656.5390625	49286.9375	51757.0703125	61847.67578125	55152.8515625	54727.04296875	60066.65625	66028.1640625	59981.70703125	62232.2421875	56905.96875	41808.73046875	63702.3359375	63447.05078125	61275.1796875	65318.62109375	79650.890625	66518.765625	60014.50390625	64262.66015625	65136.3359375	52594.7109375	73108.3125	65325.48828125	67447.90625	53978.37109375	65738.96875	83945.5546875	47598.23046875	64017.359375	49782.54296875	61019.3125	56317.09375	66961.9375	78234.21875	49415.41796875	49980.62890625	67779.0625	56986.6484375	52217.79296875	72803.7265625	60912.86328125	62364.1796875	62459.31640625	57660.46875	33949.0859375	66275.171875	61789.66015625	68045.9296875	64767.83984375	79612.0859375	64805.03515625	59600.58203125	65451.3671875	65413.52734375	50274.11328125	70382.6484375	64339.41015625	70004.5078125	53747.234375	63906.6328125	82170.3515625	46674.71484375	73697.53125	45331.83984375
480	600	17282.3359375	26644.34375	36077.7109375	46828.6875	48414.8828125	52945.14453125	33806.90625	28944.146484375	33426.796875	38270.58203125	2298.861572265625	50852.828125	36210.46875	33045.5625	17158.603515625	23773.92578125	37868.921875	47379.12890625	50693.8828125	51163.25390625	31858.216796875	31892.384765625	36575.421875	47760.92578125	36843.1953125	16755.01953125	1458.3795166015625	9293.73046875	37381.98046875	34361.33203125	-1408.8812255859375	11247.189453125	49882.62890625	53633.55078125	55126.00390625	60167.86328125	46062.17578125	44756.81640625	50765.03515625	47789.78515625	48960.05859375	49704.703125	54958.3125	50986.17578125	54140.70703125	48411.2109375	37877.87890625	52932.37890625	50540.9140625	48525.68359375	52291.33984375	61824.24609375	54446.1328125	51505.3046875	52860.5625	53327.0390625	44519.671875	60382.140625	53893.6953125	56168.60546875	46579.5	53100.79296875	68931.6875	45661.66796875	52997.88671875	45024.6328125	51573.484375	48634.73828125	54665.4765625	64267.640625	43647.19921875	42314.89453125	57933.296875	50811.12109375	44945.31640625	61788.50390625	52380.1640625	54040.58984375	51107.015625	48805.9296875	32874.04296875	53115.9140625	50789.81640625	54849.4375	52847.12890625	62368.71875	53655.04296875	49444.9140625	53988.04296875	54758.83203125	45441.65625	58577.4140625	53807.79296875	57906.9296875	46436.19921875	51709.4375	66368.96875	42418.69921875	61397.0390625	42209.109375
600	900	17633.173828125	24345.3671875	26977.73828125	36705.453125	33918.140625	38330.0625	29422.056640625	24869.90234375	24905.14453125	34912.6015625	77.9201889038086	35896.31640625	32863.421875	15955.5166015625	17295.662109375	23338.359375	28499.3046875	37065.46875	35940.52734375	36915.84765625	28487.337890625	25812.5078125	31889.79296875	36991.8828125	31235.63671875	7578.13037109375	1143.5579833984375	9162.9482421875	26774.6171875	28951.779296875	-2139.482177734375	10921.404296875	37082.4375	42176.64453125	38043.6484375	43311.38671875	36060.734375	34684.828125	36194.28125	36384.5546875	35468.671875	35449.26953125	40276.203125	36673.5390625	38553.42578125	35326.76171875	31801.568359375	39917.8984375	37846.3046875	35223.91015625	37025.328125	39813.41796875	38127.23046875	38348.1328125	37205.0078125	38463.62109375	34222.23046875	43183.53125	39083.95703125	39420.19921875	35655.09375	38367.16796875	54213.63671875	38688.58984375	37792.8046875	35803.82421875	37767.7109375	37334.953125	38623.86328125	46268.640625	37412.97265625	33126.59375	40689.421875	39060.7734375	33787.5546875	44769.078125	37981.62890625	40246.015625	38567.1640625	35821.984375	24338.27734375	38492.33984375	36664.03125	40243.68359375	38693.0859375	40523.6796875	37240.98828125	37017.890625	38644.62890625	38938.75	33010.2578125	42311.1953125	38912.5703125	40922.16796875	35756.08203125	37974.98046875	50210.6015625	35927.96875	40722.0390625	32027.23828125
900	1200	17510.17578125	21535.673828125	18246.796875	26020.69140625	19586.23046875	24446.341796875	27168.875	18493.71875	18019.6015625	24979.357421875	-274.23236083984375	21605.263671875	27279.1640625	7664.1689453125	17382.298828125	21105.392578125	19214.068359375	26276.3515625	22465.431640625	22662.203125	25586.6171875	17060.333984375	26057.072265625	21456.041015625	26951.904296875	2123.447021484375	830.8675537109375	8964.3193359375	17484.935546875	24355.8828125	-1533.8951416015625	10708.150390625	25650.8125	28337.294921875	24329.529296875	28356.646484375	28209.001953125	25153.12109375	23666.328125	25568.85546875	25645.599609375	23504.962890625	27697.798828125	25633.470703125	26878.119140625	24596.84765625	22238.7734375	26303.59765625	25827.19921875	23327.875	24660.5703125	23009.6015625	24454.01171875	26050.234375	24263.380859375	25410.115234375	24254.314453125	28823.0703125	25728.97265625	25449.263671875	24363.626953125	25410.8203125	36444.953125	30739.76953125	25972.0234375	26877.359375	24563.396484375	26223.275390625	24915.017578125	31456.923828125	27404.224609375	24096.6171875	26997.8359375	27717.41015625	22072.115234375	29771.021484375	25616.943359375	27340.87890625	26877.568359375	24399.16796875	17976.181640625	23582.744140625	24887.578125	26500.71484375	25368.59765625	24764.68359375	22933.7109375	25825.578125	24636.47265625	26730.74609375	24665.158203125	28657.5390625	25323.041015625	25399.759765625	24350.763671875	25157.712890625	35702.25	26969.677734375	28167.34375	23877.15625
1200	1500	17190.544921875	19580.28515625	13917.40234375	20010.349609375	13713.796875	17254.171875	24434.951171875	15147.8544921875	14432.2333984375	19728.15625	127.9266357421875	12159.6171875	23276.951171875	5294.681640625	16854.30078125	19311.736328125	14368.5458984375	20360.455078125	16048.5146484375	16314.080078125	22395.888671875	13103.4208984375	19891.896484375	13750.27734375	22323.806640625	-2261.2890625	739.2552490234375	8867.865234375	13459.4091796875	20434.982421875	-540.591064453125	10618.20703125	19689.490234375	21558.16015625	17630.546875	23570.87109375	21415.40625	20067.83984375	17788.322265625	20424.390625	20627.900390625	18123.34375	22486.91796875	21074.759765625	19517.044921875	19226.068359375	17787.822265625	20331.615234375	19513.7578125	17106.673828125	19388.478515625	16117.728515625	18267.744140625	19744.01171875	17652.564453125	19315.40625	18550.19140625	22259.509765625	19089.7421875	18427.302734375	18981.232421875	19556.326171875	30525.859375	24082.6796875	20157.32421875	21062.02734375	20585.994140625	22597.48046875	17928.279296875	23527.630859375	20542.615234375	19301.30859375	20559.12109375	21547.1640625	18735.076171875	23092.46875	20090.998046875	22856.7734375	22025.09375	18787.96875	15746.2958984375	19421.7109375	19706.40234375	20865.91796875	19664.404296875	20707.970703125	16676.580078125	19449.78515625	17852.185546875	21166.63671875	19455.912109375	21886.771484375	18917.1484375	18351.3359375	18573.8984375	19149.6953125	29335.03515625	22801.634765625	20835.861328125	18848.14453125
1500	1800	16218.2177734375	17791.171875	11146.7568359375	16775.896484375	10363.1298828125	13460.4013671875	20493.63671875	12254.3681640625	11990.2900390625	15702.3095703125	538.036865234375	6989.494140625	19330.794921875	4495.05029296875	16087.1748046875	17743.40234375	11700.1806640625	16427.17578125	12615.0419921875	12306.7431640625	19610.029296875	11908.20703125	15085.8037109375	13032.1748046875	18831.048828125	-1451.2283935546875	660.7862548828125	8863.2001953125	11295.21484375	18197.7578125	-91.36012268066406	10556.48046875	16389.5234375	18521.962890625	16020.306640625	19773.884765625	17904.076171875	18301.494140625	15115.9287109375	17299.04296875	16845.513671875	15263.2470703125	18453.63671875	19092.779296875	15296.91015625	15912.1611328125	14480.5810546875	15824.9501953125	17433.3046875	14761.6513671875	17045.0703125	15790.2890625	15496.6396484375	17134.16015625	13967.3896484375	16725.212890625	15378.5634765625	19085.79296875	15902.8193359375	15300.21875	15058.8828125	15914.09765625	26941.57421875	21036.87890625	20820.900390625	18636.51953125	17163.4296875	17907.6640625	15070.7900390625	19963.51171875	15771.490234375	16428.80859375	17007.654296875	18168.08984375	17264.67578125	19775.130859375	16502.748046875	19651.04296875	18144.314453125	15557.541015625	12292.4072265625	14307.3525390625	17416.77734375	17974.4609375	16237.3046875	17989.0703125	14494.5791015625	16780.65625	14204.6552734375	17239.619140625	17309.080078125	18567.359375	16298.3369140625	14537.103515625	15339.126953125	15714.916015625	24914.42578125	19619.45703125	21213.01953125	16229.0
1800	2100	15282.8779296875	16340.740234375	9312.4111328125	13305.4296875	8538.1123046875	11865.435546875	18373.162109375	10670.234375	10127.4638671875	14177.4716796875	1153.8331298828125	-821.9326171875	17477.6328125	5506.587890625	15246.4853515625	15780.716796875	9896.3740234375	13180.6708984375	10486.755859375	9332.3193359375	17750.935546875	9661.0263671875	13121.85546875	7566.50927734375	16791.642578125	-4172.8037109375	551.9102172851562	8749.826171875	11032.1171875	15489.6396484375	99.65825653076172	10402.708984375	15003.3818359375	15691.6123046875	12587.0791015625	17607.724609375	13960.72265625	16709.359375	13332.390625	15013.9345703125	16380.3134765625	13979.52734375	16122.8515625	17533.935546875	15287.154296875	13604.56640625	13307.9169921875	12897.5849609375	15044.205078125	13203.5888671875	14010.5205078125	13800.5244140625	13630.7119140625	14588.875	12400.75	15379.61328125	15443.263671875	16653.626953125	13485.798828125	13050.9775390625	13755.8486328125	14566.3837890625	23060.4921875	19723.044921875	18776.3359375	15896.34765625	15309.6689453125	17662.583984375	13151.130859375	17096.751953125	13488.3798828125	15455.826171875	15135.927734375	16432.716796875	14208.423828125	17098.89453125	14430.533203125	18556.85546875	15776.578125	13309.0263671875	10661.435546875	14552.775390625	14688.966796875	15975.125	13823.1640625	15265.9384765625	11727.1630859375	15291.302734375	12791.94140625	15185.5341796875	13804.228515625	16418.662109375	13864.79296875	12903.5771484375	13900.2646484375	13785.31640625	22505.048828125	17424.7890625	18487.294921875	14514.775390625
2100	2400	14392.4384765625	14453.0712890625	8074.935546875	11715.2265625	7864.658203125	10176.7919921875	13106.294921875	9307.296875	9207.4248046875	11397.685546875	743.9815063476562	-672.581787109375	14868.208984375	4002.877197265625	14201.4873046875	14439.38671875	8465.4140625	11626.5859375	8951.8544921875	8987.744140625	12965.71875	8408.6181640625	11955.537109375	4235.80224609375	14389.5859375	-4591.755859375	505.6933288574219	8632.4228515625	8489.7177734375	14495.1181640625	389.77056884765625	10185.0498046875	14224.833984375	12621.5244140625	11820.79296875	16468.4921875	12369.2783203125	15778.3720703125	11777.9365234375	13397.685546875	14717.4638671875	12264.6142578125	13978.63671875	16374.8623046875	13808.1640625	12589.515625	11117.220703125	12498.1220703125	14840.6689453125	10626.560546875	13053.1240234375	10894.99609375	11667.0400390625	13200.7265625	10245.44140625	13136.3486328125	12622.2060546875	14397.083984375	11539.7255859375	11870.8779296875	11579.9609375	12719.955078125	18581.306640625	16782.955078125	16918.921875	13995.7978515625	13850.2158203125	14914.068359375	11442.69140625	15287.1689453125	11321.94140625	14072.9814453125	12809.3515625	13951.8525390625	13793.146484375	15622.8095703125	12867.06640625	17182.38671875	15150.966796875	11421.8291015625	10612.1767578125	10954.736328125	13271.4638671875	12975.46484375	11997.6298828125	17044.3046875	9454.515625	12722.9794921875	11048.9033203125	14164.974609375	12138.82421875	14137.171875	11970.1513671875	11230.3369140625	11630.4248046875	12480.07421875	19998.599609375	15378.53125	17599.5625	12659.8837890625
2400	2700	13428.3154296875	13267.4853515625	7213.2177734375	9876.0302734375	5352.92333984375	8185.53564453125	14339.7607421875	7543.62548828125	7772.98193359375	10240.6044921875	1535.3890380859375	-651.6787719726562	13283.2470703125	3875.578125	13427.2578125	13003.2822265625	7568.98681640625	9823.333984375	8363.2431640625	8160.08544921875	12077.01171875	8317.1533203125	9591.1552734375	1565.898193359375	12109.3095703125	-2340.85986328125	432.4524230957031	8456.1328125	7949.16943359375	12930.3466796875	780.3876953125	9987.849609375	12747.466796875	11648.1044921875	10171.7314453125	13168.0546875	11882.525390625	14883.2607421875	10764.125	12475.5380859375	12737.265625	11236.15625	13269.673828125	15496.4677734375	11459.2333984375	11580.4599609375	11985.4150390625	10471.31640625	12920.986328125	10895.341796875	11110.5439453125	10881.50390625	10583.7578125	11754.048828125	9047.39453125	11905.3193359375	12904.1328125	13034.42578125	10016.7763671875	10209.9306640625	10338.828125	11600.4091796875	18071.8125	14558.7177734375	17017.953125	13297.2333984375	11438.23046875	14274.6748046875	9532.80859375	14720.3837890625	9522.1083984375	13247.306640625	11988.099609375	12206.0283203125	10886.517578125	14297.7236328125	11380.0009765625	16021.658203125	13328.525390625	10681.6865234375	9047.0927734375	10601.5361328125	12529.9990234375	11402.869140625	10587.853515625	13929.7197265625	8511.103515625	12596.0810546875	9370.6044921875	12639.837890625	10974.4619140625	13001.912109375	10854.3720703125	9966.8076171875	10811.8583984375	10691.701171875	17509.92578125	14738.0849609375	19376.14453125	10917.912109375
