frame_start	frame_end	Left-AV	Left-CeM	Left-CL	Left-CM	Left-LD	Left-LGN	Left-LP	Left-L-Sg	Left-MDl	Left-MDm	Left-MGN	Left-MV(Re)	Left-Pf	Left-PuA	Left-PuI	Left-PuL	Left-PuM	Left-VA	Left-VAmc	Left-VLa	Left-VLp	Left-VM	Left-VPL	Right-AV	Right-CeM	Right-CL	Right-CM	Right-LD	Right-LGN	Right-LP	Right-L-Sg	Right-MDl	Right-MDm	Right-MGN	Right-MV(Re)	Right-Pf	Right-PuA	Right-PuI	Right-PuL	Right-PuM	Right-VA	Right-VAmc	Right-VLa	Right-VLp	Right-VPL
0	30	886.32854	892.70404	1474.29777	1192.37794	1517.92665	1283.46295	1767.14093	1047.6738	1473.82781	1480.4925	1544.07587	741.81588	845.38835	1538.3961	1564.28328	1081.43879	1163.83716	613.73113	912.37218	712.78323	1072.25556	709.50922	974.77521	1609.59825	825.30588	2296.36311	756.3501	1973.12659	1325.03715	1466.45956	841.18781	2364.99925	1757.07345	853.78262	477.6938	499.68165	1697.59737	983.60573	850.86202	1053.92555	952.19185	699.81622	1107.05441	1310.15596	828.86596
30	60	12526.92259	9323.65794	11793.24148	11679.95259	11243.50057	12817.00574	15375.17149	11860.7463	14178.38615	11464.0192	14577.95302	7419.12408	8841.27375	15216.99758	11729.7989	12399.25789	11834.77187	9752.13227	8734.59814	10317.51643	11169.50555	7752.93213	11238.63945	11599.45732	7744.56098	12636.93452	12341.16249	12447.16882	10037.01878	14490.05595	11059.065	13705.70122	12384.38406	11715.72761	6494.85168	10096.80078	14152.18063	10458.6915	11838.70862	12623.41458	8056.81602	7116.78097	10520.42634	11853.94884	10445.23856
60	90	22932.84388	18909.89879	26498.1901	25339.56319	25008.97633	22647.18885	28383.06731	22680.06826	29921.57136	26472.60159	26466.7788	16529.35069	22136.51686	32429.5664	24051.78896	28294.8443	25104.15604	17653.7917	17158.76772	21912.71552	25690.91003	21138.2832	26106.58521	23797.49494	20979.6342	29883.85084	28468.20795	28999.93457	21757.13352	29810.99749	20507.67296	31492.69275	29301.50551	23809.20797	18730.13354	22449.50355	33717.39439	21182.31502	25737.14638	23767.72774	18083.34046	19254.67885	21586.32462	24608.53569	24328.07035
90	120	39211.90915	30496.6616	44484.36784	42093.90103	36205.53998	36537.15438	49080.11753	32018.57144	48338.93511	43011.285	38303.51945	27119.7934	34174.54309	49625.09715	37154.93858	41040.35542	36568.85723	30217.75458	28685.67215	33708.45682	39977.26632	28569.45508	40262.7927	38326.80508	33570.30373	50375.9192	39118.09727	47483.2887	33531.18057	48431.56713	34749.97374	51176.33526	45421.23909	40590.35806	31114.98014	40279.15137	46146.22647	36957.38617	41354.89252	38033.49272	29299.17453	33427.90737	35627.41449	41563.99946	38859.22124
120	150	45839.61144	39947.63594	49400.36263	50678.8003	39395.83571	42826.32113	49146.55645	43117.72656	59371.77745	51367.94173	45381.09505	31988.98676	44392.73127	59755.54911	44669.54444	49938.05276	44928.5158	36827.60989	34886.49275	46393.23341	50853.51197	36392.91406	50118.1096	46293.94908	44338.56766	57620.03906	57990.43383	51138.12012	39177.1654	58563.81113	45891.30252	65693.47452	55505.25115	47102.32773	34825.87581	50382.74192	63052.73546	45761.79511	49653.19221	47037.52646	34586.89966	41502.21317	44681.55373	52760.12582	48888.99063
150	180	45309.79903	41059.43016	53285.73047	52611.926	40947.66418	39901.94583	55866.80382	41663.18791	62666.95983	54224.58259	40675.85943	37579.88411	45851.85969	61793.92017	43697.58133	51948.04578	47347.53754	37020.40145	38008.45201	45869.0003	53818.38465	36142.35938	51843.14618	39748.07604	42842.32594	53630.05613	50920.35662	48137.57666	37979.14857	50529.02651	39407.2934	60196.55025	55195.5614	42103.94492	36740.9235	42515.83825	57473.46347	45334.73543	48697.10113	45868.84996	36736.22841	42777.19475	43563.18813	48062.42207	46900.83116
180	240	40743.66732	36886.33513	48672.88368	52941.54293	37871.48001	38410.23087	50224.53256	43257.45683	60053.20746	51773.92932	45206.6276	34074.49805	45673.61639	59930.76354	43071.67929	52187.58201	44452.40727	33620.35295	34284.524	43930.43519	52323.4746	32437.42578	50359.51525	43523.00825	43449.28767	53938.125	54415.86701	46511.97229	38477.8443	52017.43855	41403.88021	61271.70662	52591.1282	40990.29626	34664.03304	49505.12296	58281.71671	44016.35768	48178.85148	43593.79951	35756.99149	43283.85156	46223.31891	52188.42716	48117.3482
240	300	38703.50892	38671.25219	44813.07747	48825.36488	35873.66096	37448.49292	49292.35682	41640.54482	54697.64648	48382.29537	39435.00224	35331.26888	41222.94842	56561.29215	42264.02494	47676.33555	41844.69642	34256.76429	36594.34933	42793.28366	48739.26795	35964.22266	48175.81971	38655.57207	39884.42366	50114.2572	51524.9482	44272.85229	38214.67041	49366.2742	38984.94184	57854.26149	50594.84439	42119.24165	36352.18685	44985.56294	56907.29836	42888.63899	48641.83289	42715.70938	34402.91318	38651.39565	43272.4286	50232.85115	46842.19219
300	360	35363.45039	37888.27404	40297.86719	47828.13475	30985.89177	36754.32042	46980.3061	34983.77488	50436.28016	43122.31457	37382.76708	35515.00347	39661.46078	52525.7855	37845.38369	43608.65001	37012.74831	33077.23928	36525.63058	42287.61428	47115.42599	35700.5	45439.11288	35050.33948	37469.21925	44052.5146	46840.39724	36980.77856	34971.10653	46968.06424	38957.84375	52434.51215	46034.87393	35939.63657	32404.00244	40930.28152	53686.94435	40215.46787	46688.33454	39626.34422	30377.71888	36596.73158	38358.99313	45432.60309	44385.14561
360	480	36195.8656	36614.5788	39076.51302	44800.70655	27303.41372	33541.32601	40048.32602	33303.59303	48579.05521	40779.4795	35481.1493	32273.53364	38191.89278	47113.32248	36497.35316	41544.12141	35617.50105	33585.4188	34787.80943	39260.69143	43827.91866	31465.20312	41845.48447	34970.84506	35985.59209	41083.93236	44379.52701	34804.7406	32640.52919	41213.84491	33494.56662	47241.46139	41124.27103	33750.11118	32316.51774	36972.28778	48288.69588	38073.43697	41974.41758	36586.19995	31082.07065	36439.36105	38674.94526	42766.88182	41425.04472
480	600	32929.03852	34419.15039	34170.85905	41067.6718	22187.32778	31101.85703	33260.82247	31977.14833	44001.6928	36923.82992	31789.96495	32785.75065	36607.71078	41278.25485	33677.41545	37656.80588	30150.34472	32128.91255	33799.84319	37742.08328	40325.13931	29941.0332	39732.18675	31227.11813	34968.98497	36939.7168	42820.58472	33150.25024	32464.95409	36239.16858	31835.2053	43642.68983	38090.42885	34685.40264	30127.05697	36757.8916	41849.07551	35448.6791	36056.44932	31800.1854	29988.36256	34079.23689	35978.71166	40687.4259	39250.63813
600	900	29016.18517	31660.01121	29870.75705	35857.66308	20534.11432	29440.05309	30733.56959	26392.61863	38141.55659	31836.65116	30528.58714	28331.2628	31761.62113	36337.80773	30151.52939	32530.24929	27346.31808	29092.746	31152.86244	34283.68074	36071.12142	28255.53906	34557.7996	28830.58819	30921.08329	31420.29369	36931.98481	26978.48926	29315.29962	32607.36898	28690.19835	37652.49557	32413.64507	32494.55376	27390.10417	32339.82311	37069.85389	32899.65397	33229.94662	29032.71348	28985.69056	31046.14174	33872.53192	36471.38375	35544.54201
900	1200	26862.68384	28318.17706	26275.60069	32787.74397	18793.88063	26857.17683	25757.28768	23691.50648	32572.55698	27480.31717	26765.45034	25825.90408	26142.53093	31753.22132	27897.68835	28653.10552	24745.39304	27835.36213	28404.45061	31212.5809	32301.67256	28038.99023	32188.77866	27339.95583	29331.31435	28456.86585	33773.49363	24873.87451	27386.93064	27569.39686	25070.82357	33546.74968	28839.88483	29396.07488	25784.73551	28975.76727	32646.25114	29158.64234	30067.87017	25196.69709	28139.79414	29937.77232	31578.67012	32509.06053	32291.09145
1200	1500	24652.96124	25587.15322	23989.97873	29577.18434	16797.51574	24094.17562	22375.88686	20610.59056	29329.55724	24759.26573	24829.68422	23823.05968	23899.69025	28599.85218	24499.56062	26501.4542	22256.34887	25741.46395	25588.34794	28831.89594	29497.65893	26171.09961	29534.07227	25283.48929	28006.42989	24946.05818	28332.00752	21540.3642	26966.7984	23845.88267	20994.19813	28747.21995	24716.66745	24999.34023	25556.99333	24308.12376	28738.9482	26187.78111	27033.32322	22154.36863	26859.1276	29110.83175	28922.96665	29759.27181	29855.12543
1500	1800	21843.2041	23807.30273	21068.61382	26661.3285	15815.27579	23929.14684	20399.97342	19018.78279	25043.34249	21760.27764	23918.22003	22814.90885	22685.1818	24064.34284	21678.99742	24430.05897	19649.88104	23838.65404	24945.04576	25638.06054	26045.6612	24459.58008	26521.92682	21656.28083	24059.40301	22108.71937	26476.52712	18943.61572	24544.68641	21475.0963	19831.76975	25649.11117	21908.61084	24551.90056	22094.18294	22917.01429	23706.79517	23484.69192	22769.10038	20355.01488	23529.25955	25478.33677	25822.78561	26366.34243	25446.92072
1800	2100	21167.70484	20973.14935	18467.1652	22126.14587	12908.79912	21160.30996	17668.93095	17952.42157	21186.72059	19205.98904	22129.58479	18560.73199	19025.89792	20658.83884	19547.1921	21178.40815	17584.06948	21870.92701	20621.38002	22778.8995	22770.90827	20785.64062	22815.96774	19929.91577	22267.21054	19349.9576	22854.82315	16503.58759	21475.1058	18476.81907	17964.92361	22746.03675	19934.2565	20876.05535	20292.55794	20150.11026	22064.65172	21312.83312	21166.46558	18601.3239	21617.78361	24013.29046	23410.64365	23509.82525	23205.32814
2100	2400	17794.01394	19065.53074	15794.1416	18248.02648	11809.45669	18460.57377	14341.32012	14542.16663	20247.53329	16826.07016	17595.55263	18172.46853	15319.2047	18699.21613	17172.61249	18609.65365	15858.07954	19256.31836	19100.56306	20772.71011	19847.60683	20274.88477	20419.37539	16875.06624	20538.16026	17180.4578	20400.74255	15100.62036	21534.98983	16882.37351	16655.40169	19412.59369	17112.50933	20405.529	18401.19157	16912.16018	19479.57349	19471.21388	18888.79686	17071.37735	19630.72697	21887.96233	20948.79327	20541.14768	20704.82504
2400	2700	15435.8215	16836.39436	13870.53733	17381.91096	11296.94221	17256.50903	13113.91125	14398.44727	16658.03257	14333.02879	17653.97546	17870.6352	14730.43322	15665.13076	16006.27341	16369.57019	14687.67545	17911.28693	17940.25781	18066.20793	18069.12951	21709.61133	18388.18882	15607.41184	17281.26546	14571.51701	18268.36014	13200.41882	19135.98414	13620.32083	14406.51096	16631.92905	14839.09361	17949.54825	17524.17716	14326.72501	16227.19913	17745.5611	15620.83469	14223.87456	17753.6284	17955.13198	18227.00159	17988.85002	18435.30542
2700	3000	13300.23452	14507.28208	13295.34136	14735.27945	10428.85553	17153.61912	12505.37308	13252.40759	14738.35528	13206.5923	15782.28647	14233.713	12187.01026	14958.07982	14088.69584	15704.36182	14278.96869	14932.41667	15340.77232	15305.73233	15234.55436	21446.04102	16633.33502	15170.94927	15337.35221	14303.03187	15147.04091	13055.1709	17680.4697	13161.51142	13084.73188	14607.5947	12855.15972	15240.88953	14496.87134	13726.1814	14861.72311	16230.81445	15501.68304	13365.49487	16847.13843	16237.55204	17326.83907	16430.02726	16972.70683
3000	3300	11968.50631	13358.18144	9883.33686	14193.61043	9143.65636	15614.20358	10020.07314	12668.64808	12521.78901	11135.58309	14335.25612	11717.88075	12203.54919	12392.20984	14126.90159	12784.58287	11432.57297	15125.84613	13198.13839	14794.21189	14312.7378	16919.48438	15494.98532	11787.32679	12354.0029	11016.22816	13813.65185	10808.62579	16582.67197	11141.85209	11875.10493	11893.21866	11306.87816	13535.61556	11424.95898	12170.18095	12412.39162	14437.78011	13535.88846	11824.64732	14135.90452	13168.77037	15638.60745	15071.06667	15598.60512
3300	3600	11001.53636	12862.56725	10532.10805	12182.49518	9314.59467	13145.17125	9918.84627	9999.43025	12673.36944	10419.90724	11504.05359	12200.38477	11081.70033	11705.44176	11288.30635	11446.16287	10997.20862	13086.43662	13351.69071	14243.39078	13839.33279	13223.04395	12476.74553	10298.45927	11624.14154	10881.68693	12341.38374	10853.03467	15440.38116	11172.99232	9010.18468	12032.6722	10816.20496	11331.55158	11902.81592	11746.71522	11304.4551	10745.44685	12431.44603	10896.28941	11885.77872	12451.40653	12822.27409	12965.43419	12956.84286
3600	3900	9873.77167	11351.51684	9205.62663	10029.71755	8813.00422	13828.74641	9717.9749	9755.7097	10764.09348	9338.22304	11565.16374	11823.11187	8625.05698	10381.83126	12298.67245	11004.84538	9779.98778	12022.05977	13039.05134	13210.48918	13175.7376	16291.69141	12707.20556	10797.1558	11534.72107	9664.72204	12199.80627	9256.52527	14763.2606	9844.2146	9723.61947	11020.28552	9767.65223	12055.83137	11296.4755	9529.16876	11132.99649	12113.08952	12068.02109	10496.12734	12437.51604	12759.85672	12747.83095	12187.4818	13475.42614
3900	4200	9126.09634	10046.01509	8090.58868	11331.0938	6809.69609	9263.05097	7424.15772	7243.05546	9619.26814	8751.90713	8667.11281	10891.82693	9730.92246	9070.98082	9219.04427	9856.24716	9038.56796	11154.99125	10383.88156	11761.13046	11610.27883	16741.25586	11834.15032	9997.99043	10230.16054	9728.8751	9696.67699	9015.90637	12144.6465	9116.41254	8220.07237	9607.21349	9129.32506	10353.22208	9502.21867	9002.59949	9246.08653	9714.81465	11423.93866	8812.04217	10654.4265	10068.74721	10960.83165	11190.94019	12347.29793
4200	4500	9336.15162	8843.42951	8439.70044	8716.84226	7408.31014	10161.898	9140.03704	7151.98288	8867.41065	7864.79124	9833.5644	8004.43468	7652.60452	9968.17182	8737.86615	11244.42404	9702.76789	10369.47891	8141.06271	9284.94986	10259.72617	9501.81152	10934.48975	10462.62438	10860.82836	9749.91527	8350.66737	9497.49362	11421.5936	8635.04456	9309.52235	9559.78957	8340.68922	9543.82379	10830.91007	8187.28281	9221.87839	11418.72743	10746.2849	8792.06762	11141.62303	11451.40304	10673.33751	10137.95207	11414.01744
4500	4800	7767.0349	7760.96831	7240.82107	8436.20826	6474.84691	9808.16646	6352.10565	6578.90571	7872.63965	7318.12051	9278.56128	8161.38162	8014.30919	7272.44586	8153.85131	8923.29903	7671.55303	8862.83286	8456.64202	8843.66443	9132.19664	13269.51074	9954.42617	7699.54753	9844.92408	7421.44051	9158.28978	6663.22556	11902.74667	8651.94394	7751.51725	9164.13991	7966.3839	9339.15644	8585.56559	8906.51992	9340.2644	8615.66503	10078.94334	8100.95928	9682.50841	10900.64342	10617.76581	10548.6975	10640.97641
4800	5100	6069.36576	8417.66401	5922.35558	6342.84756	4897.09467	10873.58074	6133.87868	6624.44462	8193.38955	6868.57241	7726.32294	10152.42155	6337.06183	8050.37297	8101.61919	9122.9792	8413.26829	7534.6107	10158.94517	7748.79457	8179.28073	9611.73242	9195.90507	6908.49734	8267.21753	5962.20562	6958.22361	5819.87482	12543.42733	7207.72951	6192.24897	7652.61881	7223.91262	8771.50073	7354.26851	6586.83439	7914.22479	8255.78587	9925.67397	8078.85367	8935.32228	9027.33775	9103.32979	8785.8629	9915.90208
5100	5400	7304.80882	8251.66481	6899.38216	7534.18452	4470.796	8464.5362	6569.74389	5418.88312	7222.42113	6717.16356	8890.6266	10001.67556	6446.65559	6074.1741	6047.39552	6688.57583	6531.43693	8976.96716	9135.12263	8931.87366	8544.02792	10480.53516	8566.23196	7688.17841	6454.50101	7766.27963	10692.67499	6582.31625	9399.82711	7420.9042	6260.76134	7894.05198	6826.38513	7915.66465	7826.72607	7824.29456	8898.50534	7714.06693	9194.4843	6865.93087	8342.09436	6643.54122	10261.52462	9956.02197	10521.60755
