frame_start	frame_end	Left-Cerebral-White-Matter	Left-Cerebellum-White-Matter	Left-Cerebellum-Cortex	Left-Thalamus	Left-Caudate	Left-Putamen	Left-Pallidum	Brain-Stem	Left-Hippocampus	Left-Amygdala	CSF	Left-Accumbens-area	Left-VentralDC	Left-choroid-plexus	Right-Cerebral-White-Matter	Right-Cerebellum-White-Matter	Right-Cerebellum-Cortex	Right-Thalamus	Right-Caudate	Right-Putamen	Right-Pallidum	Right-Hippocampus	Right-Amygdala	Right-Accumbens-area	Right-VentralDC	Right-choroid-plexus	AirCavity	Skull	Vermis	Pons	CSF-ExtraCerebral	Head-ExtraCerebral	ctx-lh-bankssts	ctx-lh-caudalanteriorcingulate	ctx-lh-caudalmiddlefrontal	ctx-lh-cuneus	ctx-lh-entorhinal	ctx-lh-fusiform	ctx-lh-inferiorparietal	ctx-lh-inferiortemporal	ctx-lh-isthmuscingulate	ctx-lh-lateraloccipital	ctx-lh-lateralorbitofrontal	ctx-lh-lingual	ctx-lh-medialorbitofrontal	ctx-lh-middletemporal	ctx-lh-parahippocampal	ctx-lh-paracentral	ctx-lh-parsopercularis	ctx-lh-parsorbitalis	ctx-lh-parstriangularis	ctx-lh-pericalcarine	ctx-lh-postcentral	ctx-lh-posteriorcingulate	ctx-lh-precentral	ctx-lh-precuneus	ctx-lh-rostralanteriorcingulate	ctx-lh-rostralmiddlefrontal	ctx-lh-superiorfrontal	ctx-lh-superiorparietal	ctx-lh-superiortemporal	ctx-lh-supramarginal	ctx-lh-frontalpole	ctx-lh-temporalpole	ctx-lh-transversetemporal	ctx-lh-insula	ctx-rh-bankssts	ctx-rh-caudalanteriorcingulate	ctx-rh-caudalmiddlefrontal	ctx-rh-cuneus	ctx-rh-entorhinal	ctx-rh-fusiform	ctx-rh-inferiorparietal	ctx-rh-inferiortemporal	ctx-rh-isthmuscingulate	ctx-rh-lateraloccipital	ctx-rh-lateralorbitofrontal	ctx-rh-lingual	ctx-rh-medialorbitofrontal	ctx-rh-middletemporal	ctx-rh-parahippocampal	ctx-rh-paracentral	ctx-rh-parsopercularis	ctx-rh-parsorbitalis	ctx-rh-parstriangularis	ctx-rh-pericalcarine	ctx-rh-postcentral	ctx-rh-posteriorcingulate	ctx-rh-precentral	ctx-rh-precuneus	ctx-rh-rostralanteriorcingulate	ctx-rh-rostralmiddlefrontal	ctx-rh-superiorfrontal	ctx-rh-superiorparietal	ctx-rh-superiortemporal	ctx-rh-supramarginal	ctx-rh-frontalpole	ctx-rh-temporalpole	ctx-rh-transversetemporal	ctx-rh-insula
0	30	272.9484558105469	447.90008544921875	1022.4910278320312	1243.4200439453125	1668.5189208984375	1703.5843505859375	231.14605712890625	867.3555297851562	1628.8250732421875	1943.4781494140625	248.16583251953125	427.1264343261719	1315.3809814453125	4805.1455078125	338.0580139160156	424.1109619140625	1046.089111328125	1561.5147705078125	1495.5355224609375	1444.8848876953125	530.428466796875	1206.4287109375	1015.3616333007812	3431.549072265625	534.8812866210938	3369.5556640625	21.279794692993164	330.30682373046875	542.0596313476562	758.6002197265625	1074.6287841796875	352.6512756347656	1682.400390625	2864.506591796875	1978.34765625	2340.501708984375	1391.48046875	1262.6990966796875	1609.718505859375	1112.147705078125	1229.494384765625	1924.9400634765625	1657.122802734375	2229.599609375	3029.450927734375	1239.8294677734375	1363.7833251953125	1691.3385009765625	1897.7598876953125	2259.125732421875	2254.114990234375	2635.4384765625	1545.5264892578125	1693.336669921875	1767.1466064453125	2096.737060546875	1677.2503662109375	1963.904052734375	1826.395263671875	1079.988525390625	1944.8353271484375	2004.65869140625	1605.05224609375	451.41455078125	2831.230224609375	2559.161376953125	1942.000244140625	2161.16064453125	1583.3111572265625	2991.6767578125	3186.633544921875	1366.7119140625	1336.6995849609375	1061.1995849609375	1674.15576171875	1422.4503173828125	2063.50244140625	2247.955078125	1787.3792724609375	1360.1002197265625	1742.5130615234375	1502.756103515625	2159.438232421875	1472.2607421875	1927.9716796875	2449.26806640625	1344.916748046875	1939.7825927734375	1491.0377197265625	1583.05859375	2752.159912109375	1679.26708984375	1430.5736083984375	1332.0638427734375	1415.761474609375	1616.424560546875	2473.24462890625	561.6959838867188	4158.142578125	2244.0439453125
30	60	2904.9345703125	5533.759765625	12944.5458984375	13308.541015625	18407.158203125	18950.86328125	6670.95458984375	7658.78515625	12637.595703125	10582.314453125	2646.159912109375	18547.6953125	9883.248046875	49754.30078125	3278.1025390625	5494.96484375	12470.40625	14159.5166015625	15417.8671875	18020.75390625	6333.5205078125	10140.9521484375	9000.3056640625	15593.021484375	9881.9228515625	42332.08203125	289.5172119140625	3382.775634765625	14698.3330078125	9465.5654296875	7278.0615234375	3335.27490234375	18461.8203125	20353.171875	20799.89453125	27722.841796875	11486.4833984375	15528.09375	18230.115234375	15913.6416015625	14191.27734375	21171.259765625	19500.732421875	21841.439453125	20023.744140625	15696.697265625	7940.90234375	16476.509765625	23289.740234375	20656.302734375	22483.9296875	31349.6953125	18451.970703125	20037.2265625	18693.328125	20372.87890625	15724.859375	20970.923828125	19565.240234375	16688.40234375	15943.75	21043.904296875	23720.861328125	5994.0126953125	27210.73828125	16022.498046875	16780.998046875	19108.861328125	21211.013671875	29878.419921875	18389.521484375	12128.646484375	17618.630859375	14724.953125	16894.404296875	20608.083984375	18982.091796875	19224.943359375	16558.404296875	14406.6044921875	11218.9521484375	18902.373046875	19375.37890625	16594.03125	20600.15625	26376.34375	16798.048828125	21337.712890625	17737.517578125	19937.498046875	19151.28125	19331.810546875	16741.708984375	16404.9609375	14399.548828125	19450.99609375	21014.626953125	8779.35546875	33703.45703125	15297.810546875
60	90	6424.6865234375	12112.85546875	28219.955078125	29045.494140625	42607.34765625	40968.703125	12286.5107421875	16383.0126953125	25286.6015625	19634.685546875	5699.8642578125	31754.017578125	18718.4453125	84943.4140625	7048.576171875	12365.353515625	27918.216796875	30371.26953125	37768.94921875	38522.86328125	15156.146484375	22349.265625	21045.107421875	21912.943359375	22386.4921875	83879.7734375	777.5824584960938	7345.4453125	31688.015625	21038.6328125	10831.19921875	7343.8525390625	40404.7734375	40060.03515625	46936.8671875	57501.3828125	26411.474609375	32317.328125	42486.21875	36621.74609375	42124.21875	48798.046875	42387.9453125	48435.96484375	42984.6015625	34266.53125	19464.001953125	40768.6796875	47624.31640625	42581.32421875	51546.35546875	72320.6171875	44120.9375	43376.51953125	42779.41796875	44607.2265625	34050.06640625	48990.75	43428.6875	40530.11328125	33756.61328125	45186.234375	47334.90234375	16907.63671875	56872.2109375	32695.111328125	37713.32421875	42678.4375	45637.90625	67705.9609375	41981.48828125	27453.439453125	42063.4453125	34253.609375	40713.87109375	47121.07421875	40253.86328125	44554.4921875	37660.96484375	34101.6953125	19853.833984375	38617.87890625	43466.3828125	39619.515625	44587.578125	63562.16796875	41183.94140625	44295.0703125	40183.04296875	45006.73046875	33362.39453125	44754.16796875	40432.91015625	41170.484375	31105.7578125	43738.7734375	39591.83984375	18015.30859375	62811.92578125	31266.390625
90	120	10452.03125	20652.0546875	44255.30859375	45182.69921875	66215.96875	67058.7109375	19095.462890625	26774.109375	38766.40234375	33567.07421875	6929.50146484375	46055.78125	31444.388671875	139368.828125	11235.8271484375	19244.775390625	43332.94921875	49016.11328125	60786.69140625	62616.21875	24017.873046875	35869.5078125	30983.0	49912.49609375	31861.474609375	133248.9375	1126.252197265625	11393.8046875	51057.2890625	33001.078125	12966.8115234375	11531.115234375	63764.01953125	63842.515625	73678.6640625	90359.5390625	43002.46484375	48514.203125	65818.1328125	58576.92578125	57333.99609375	75276.3828125	66496.0625	74599.7265625	67168.3125	54484.9453125	33348.86328125	68387.859375	71966.625	71678.34375	77882.3046875	112313.8046875	67344.703125	67527.3515625	66967.8984375	66950.0625	49455.45703125	77377.8125	68379.140625	65501.8046875	51912.77734375	70190.765625	76246.3515625	29352.142578125	96115.578125	49807.3828125	59940.3203125	50184.4609375	69286.2421875	96800.6953125	55355.4296875	45216.3125	62134.95703125	53401.57421875	61240.1328125	74392.890625	62915.3359375	64538.46484375	56871.88671875	52546.68359375	34975.16796875	62127.59375	70867.8359375	64365.98046875	70266.28125	98199.5546875	66357.75	63804.40625	64518.39453125	68569.6015625	48843.1875	71960.1875	64639.23828125	68289.5234375	47618.3203125	65380.11328125	77933.8046875	28331.224609375	105847.09375	45116.89453125
120	150	13262.8876953125	24390.53515625	56078.4140625	55794.33984375	79223.9375	83666.015625	29536.046875	31546.0234375	49006.0	38372.79296875	8450.9541015625	72934.28125	38779.828125	146886.125	13840.4736328125	23381.990234375	54167.3515625	61977.1328125	73822.0390625	80452.4453125	26261.763671875	45349.046875	33941.3046875	42597.5234375	39401.3359375	138831.3125	1203.116943359375	13746.693359375	58567.30078125	42807.41015625	10481.4697265625	14336.751953125	79486.4921875	82441.453125	93033.0625	115645.7578125	54274.33984375	60704.8046875	82547.6875	74496.7734375	63088.359375	94682.7421875	83133.984375	87309.2265625	80750.9765625	69873.8515625	35678.46484375	79735.3125	89929.265625	91522.9296875	96478.265625	128664.8125	88979.0859375	80223.875	84215.078125	87153.4140625	63571.41015625	96372.65625	84745.0625	84915.8125	65773.6171875	87718.484375	89191.5	39652.80078125	112060.3984375	59588.98828125	76131.125	60929.08984375	90072.4140625	116108.8671875	72385.9296875	57292.8203125	81323.7578125	66864.3359375	80894.2890625	92371.9375	79376.4140625	82388.0859375	75141.4140625	65482.3984375	43564.83984375	85456.96875	85581.46875	81058.515625	89650.9140625	124816.2890625	85934.6953125	77562.796875	80050.828125	85295.3671875	63482.03515625	89231.15625	82174.25	86186.828125	62093.48046875	81421.2421875	90617.2421875	39390.75	112743.3515625	53731.203125
150	180	13649.744140625	25949.892578125	55341.359375	58389.9296875	79862.4375	84663.765625	23007.490234375	31909.125	45655.78515625	36992.5625	7040.13818359375	67720.2890625	41115.55078125	123125.1953125	14173.6708984375	24591.498046875	54194.73046875	58947.6640625	73773.8359375	77387.546875	32971.9375	42666.38671875	40148.921875	50782.546875	38930.24609375	119340.46875	1134.8341064453125	13710.150390625	58809.55078125	41412.84765625	6797.6689453125	14195.9462890625	77039.6640625	71481.5859375	92656.5390625	114426.515625	48558.30859375	61987.10546875	85434.1796875	74489.03125	70383.890625	94819.3984375	83843.0625	85765.140625	77915.9609375	69452.796875	43136.3125	90378.0078125	90218.5625	88744.9375	92702.2265625	136120.21875	92220.625	80049.3984375	84875.5234375	89548.6953125	67120.765625	94915.1875	84913.4375	87796.5390625	66218.34375	86176.6484375	98641.734375	36268.23046875	112230.40625	59248.125	79401.0390625	70182.265625	90644.8203125	110933.7578125	63307.8359375	56183.50390625	83980.984375	69516.4453125	76769.9375	95388.921875	75691.78125	81574.8515625	76107.5390625	66841.1796875	51445.54296875	75933.4921875	83072.125	80967.859375	87568.109375	121065.4140625	90574.8515625	81729.3125	82988.21875	87524.5625	57004.72265625	91317.8359375	82423.53125	91564.5234375	63576.27734375	81364.96875	90380.9140625	41150.8125	117649.046875	54728.9375
180	240	14114.82421875	24660.734375	52859.3984375	56405.89453125	76697.625	81282.4140625	27130.078125	30935.736328125	42463.3515625	39164.8046875	5149.91796875	65248.47265625	39362.6171875	119297.109375	14614.64453125	23859.322265625	51714.515625	59811.2578125	72786.5234375	75468.4375	32792.92578125	43259.1328125	38261.54296875	46227.21875	38960.46875	95803.171875	666.1570434570312	13016.7509765625	59532.703125	41385.73046875	5641.45361328125	14348.3173828125	74893.5078125	74321.921875	87397.0859375	107207.234375	48907.03125	60031.73828125	79761.640625	72009.7109375	62751.9296875	88611.1015625	79014.1171875	80842.234375	77913.609375	67368.265625	40210.53515625	81330.65625	82385.8515625	82969.265625	89336.78125	124825.96875	87694.875	76633.390625	82593.5859375	83772.5234375	58854.37890625	91860.96875	81149.09375	85673.078125	64396.88671875	80477.375	85233.9375	37391.6796875	100444.9921875	58359.04296875	71888.4765625	57984.9765625	83629.953125	108677.375	56643.07421875	57085.55078125	79756.4765625	65908.734375	73315.6328125	89265.9453125	74988.2109375	76291.8359375	73027.765625	64278.53515625	46322.61328125	81516.1484375	77574.59375	78342.6171875	84424.796875	109107.296875	84660.2890625	74060.3203125	78338.7421875	82386.3984375	57259.43359375	86953.6796875	78996.2421875	86524.40625	61014.8828125	78581.4296875	85916.4921875	39903.34765625	99932.5546875	51654.109375
240	300	14418.9580078125	23763.373046875	49352.9765625	53460.25390625	73391.140625	75369.3984375	27869.30859375	29429.01953125	42369.05078125	37760.00390625	3427.02880859375	64030.234375	35239.33203125	98220.3515625	15002.7041015625	23253.80859375	48095.1015625	57833.79296875	68217.7109375	69780.0703125	31777.205078125	41707.296875	38810.09375	43230.93359375	39037.87890625	82103.7890625	285.9859924316406	12511.7236328125	51052.33203125	38507.79296875	4092.8642578125	14015.302734375	69903.046875	69609.6640625	79131.7421875	98171.8203125	50010.109375	56401.28515625	74612.046875	66481.765625	60873.9140625	81394.53125	72901.03125	75037.8359375	71367.109375	62056.390625	39075.30078125	77174.3359375	74450.171875	75730.6484375	81597.84375	109955.3125	81926.578125	68813.3671875	75323.953125	75881.59375	56292.3125	84396.15625	75831.125	79505.0625	59800.51953125	74575.25	79635.3515625	37084.12890625	90631.015625	56622.9609375	68678.6484375	58590.609375	79707.609375	94331.84375	54804.76171875	54065.8984375	73430.1015625	61833.5390625	66240.3984375	82610.078125	66074.6171875	70761.6875	68707.65625	62160.9453125	47765.5703125	71859.53125	73378.375	73172.5703125	79150.2265625	100355.5078125	79358.3515625	71488.0546875	73937.1875	76724.40625	59456.14453125	80548.34375	72230.1640625	80540.2109375	58912.06640625	72203.875	82647.53125	38664.0546875	89796.0703125	49230.6171875
300	360	15037.80859375	24298.8828125	44812.30859375	49811.82421875	66607.1875	69305.109375	24813.412109375	29343.33984375	37989.63671875	36950.046875	3478.6875	60277.83203125	36161.56640625	86598.90625	15230.828125	22620.53515625	44551.984375	52803.7578125	61067.3828125	64307.45703125	31267.419921875	36462.91015625	39430.54296875	50088.3359375	35601.3671875	69447.078125	-204.77676391601562	12349.9326171875	47720.8984375	35674.47265625	4404.203125	13859.333984375	64393.46875	65533.5859375	71825.9140625	87805.0625	47479.765625	51901.46484375	67326.6171875	62259.43359375	54456.4453125	73747.015625	63714.953125	68154.4140625	67161.7109375	56826.2734375	37406.78125	69968.1875	67318.9140625	64066.453125	72374.6015625	96211.515625	72282.40625	62348.7421875	68220.125	66972.4921875	53136.5625	75001.0078125	66537.515625	70987.2109375	56043.21484375	67308.0703125	74184.578125	37140.1953125	74295.765625	52110.765625	62780.20703125	54062.9140625	69572.78125	87192.3359375	54853.82421875	48722.37109375	66927.0234375	56731.640625	57923.609375	74712.5390625	59519.87890625	65465.41796875	63735.078125	55956.9921875	46097.52734375	65834.8515625	64564.19921875	63368.0234375	69688.390625	85820.109375	72296.890625	62968.03125	65940.90625	66707.0078125	50873.46484375	71281.953125	64862.05078125	72208.1171875	54417.14453125	64282.98046875	74762.4921875	38157.7890625	80239.6171875	44614.5859375
360	480	15576.7587890625	23386.052734375	39892.51171875	47231.6328125	56504.5234375	59096.51953125	28667.837890625	28162.92578125	34359.47265625	37589.484375	1928.9139404296875	61298.58984375	33761.18359375	59338.63671875	15540.982421875	22892.337890625	39483.8828125	49349.83984375	54362.328125	56494.3828125	30760.26953125	35176.66796875	36899.91796875	34789.48828125	34553.96875	62572.23828125	-424.8025207519531	11978.736328125	40453.671875	33502.17578125	2979.28955078125	13609.5341796875	54787.6171875	56439.6171875	61610.91796875	75238.0625	44662.62109375	48741.35546875	57756.25390625	54165.41796875	48373.34765625	62525.68359375	55243.36328125	60390.19140625	58281.875	52704.453125	34323.08984375	63420.94921875	57749.578125	59145.21875	62298.36328125	78753.8046875	62967.76171875	53786.79296875	59348.6015625	59140.8046875	48918.9609375	65426.81640625	58806.87109375	62206.98046875	50486.0390625	58906.3203125	68557.2890625	36958.88671875	64812.484375	49576.0390625	55902.91015625	45800.25	61327.33203125	74669.3984375	49183.40625	45256.94921875	58922.1328125	51580.796875	51420.9296875	65230.25	53029.1640625	56679.5234375	54758.265625	50139.00390625	40118.8046875	57847.44921875	57152.52734375	55205.95703125	61010.5859375	71024.8515625	62656.203125	54478.5859375	58274.609375	58880.78125	47288.5546875	63293.109375	57392.72265625	64442.15625	49361.73828125	56500.11328125	63435.8515625	36691.484375	63238.0390625	43148.3515625
480	600	16203.9228515625	23191.806640625	34575.08203125	43191.08984375	48156.875	53034.76953125	26865.697265625	26776.939453125	30315.61328125	36006.4140625	1341.9443359375	52012.17578125	33030.375	38185.734375	16002.9404296875	22564.365234375	34696.2578125	45519.81640625	46851.3828125	48177.2734375	29851.255859375	30879.171875	35661.8046875	37742.2265625	34690.62109375	37892.86328125	-520.460693359375	11782.4775390625	36074.08203125	30305.830078125	1521.3319091796875	13517.306640625	47423.5546875	49975.6953125	52361.56640625	64571.828125	39611.05078125	42222.2109375	48584.8125	48008.625	43347.3359375	52851.22265625	48930.89453125	48918.76953125	49935.78515625	45199.15234375	31537.181640625	53485.8515625	49688.80078125	51332.71484375	53056.6484375	63718.15625	54648.81640625	47102.3515625	51142.5234375	50936.359375	42759.46484375	55383.88671875	50998.98828125	53329.875	44491.03125	50431.66015625	57837.5234375	36085.53125	55518.79296875	44707.625	45440.04296875	42157.59375	51589.7109375	65106.16796875	46310.28515625	38583.34765625	51466.875	47057.53515625	45628.53515625	55363.6640625	45104.98046875	49168.10546875	48197.27734375	44585.08984375	37975.52734375	50094.6953125	49189.53125	50500.5546875	53481.296875	57232.55859375	52815.94921875	49527.46875	50672.08984375	49985.125	39582.8671875	54878.97265625	50259.515625	55187.390625	44488.4921875	48502.4296875	55245.93359375	33556.828125	51025.69140625	39836.9921875
600	900	17495.841796875	23493.439453125	29128.4609375	38121.4375	38915.32421875	42834.6171875	28643.451171875	25076.619140625	26465.44921875	32644.6875	733.598388671875	40925.61328125	32024.099609375	31598.85546875	16956.6328125	22525.6640625	29186.509765625	40648.65234375	36831.51953125	40700.8515625	30174.80078125	27464.52734375	32678.462890625	32632.025390625	32416.154296875	29528.42578125	-719.6653442382812	11849.234375	29602.17578125	28783.646484375	1649.8819580078125	13937.587890625	40764.37109375	43264.3984375	42788.71484375	52409.78515625	40029.83203125	36264.625	41055.21875	41762.09375	35683.29296875	42635.71484375	40894.80859375	42147.30859375	41805.7734375	38228.37890625	27038.830078125	43090.03515625	40717.57421875	41727.30078125	44274.30859375	52023.64453125	44613.28125	41113.3515625	42604.67578125	41993.6015625	35436.40625	46144.01171875	42145.38671875	44533.95703125	38132.75	41736.6640625	49642.52734375	32916.1328125	45489.40625	39270.15625	39091.703125	37951.53125	43375.3515625	51472.68359375	42395.3203125	34405.67578125	42913.03125	40843.99609375	41996.91796875	45056.98828125	39145.69921875	40684.01171875	41829.44921875	38039.046875	33754.265625	43468.71875	41048.28515625	40995.02734375	44281.0546875	47532.484375	45085.99609375	42073.94921875	42957.703125	41803.6171875	36015.84765625	45580.03125	42184.8046875	46559.796875	38006.4375	41112.640625	47213.8046875	30980.9453125	41581.73828125	34445.76953125
900	1200	19011.0	23924.890625	24995.8828125	34111.66015625	32334.3828125	35862.12890625	27751.283203125	23827.4375	23417.73046875	31267.771484375	287.265625	37302.4296875	30419.23828125	23511.810546875	18263.994140625	23450.078125	25119.59375	35990.328125	30644.62109375	34607.36328125	29545.466796875	25080.755859375	30660.41015625	26952.8359375	30547.951171875	28703.146484375	-827.5855102539062	12262.87890625	25591.296875	27365.796875	1563.9521484375	14684.4853515625	34982.15234375	36544.1015625	35434.53125	45607.44140625	36757.17578125	32292.611328125	34976.37109375	37324.6640625	35028.4453125	37085.68359375	37805.171875	37350.328125	37512.01171875	33672.8125	23947.4453125	37037.6484375	34504.30078125	37372.0625	37476.9609375	43518.8515625	38657.34765625	34387.9921875	37534.359375	36089.078125	33000.2109375	39943.5234375	36487.10546875	38399.59375	33687.234375	35740.109375	41888.48828125	31449.0	40285.52734375	35516.10546875	34385.70703125	34890.06640625	37957.82421875	44548.80859375	35997.48828125	30857.40234375	37006.9375	36106.7734375	35927.015625	39215.39453125	34695.2890625	35748.37109375	36713.74609375	33683.03125	30040.98046875	38821.4375	36355.00390625	36857.328125	38712.8046875	40404.4296875	38592.72265625	37345.83984375	37480.2578125	36168.05859375	31832.650390625	39450.375	36407.85546875	40749.98828125	34115.26171875	35985.7578125	42633.390625	28248.177734375	37667.86328125	31248.044921875
1200	1500	19773.7421875	23805.943359375	21717.802734375	30652.2890625	27548.640625	30666.130859375	27650.404296875	22168.06640625	21206.955078125	27879.587890625	296.1402282714844	30297.712890625	28192.982421875	12690.0517578125	19080.673828125	23360.662109375	21896.943359375	31796.412109375	26024.990234375	29018.82421875	28858.826171875	22126.55859375	27480.80859375	21675.29296875	29527.94140625	22109.904296875	-1032.57568359375	12579.1435546875	20891.9296875	26158.16015625	1791.1719970703125	15337.1142578125	32025.220703125	33693.68359375	32230.166015625	42068.17578125	33830.78515625	30080.572265625	30670.265625	32955.25390625	30161.62109375	31966.748046875	32908.1640625	33327.86328125	33289.87109375	29508.373046875	20802.90234375	32036.65625	30674.2890625	33726.26171875	32427.40625	37577.08203125	33482.57421875	31714.9296875	32684.5390625	32206.201171875	26931.2421875	35229.41015625	32433.724609375	34279.04296875	29983.798828125	32045.322265625	40563.01171875	28785.43359375	38600.94921875	32497.763671875	29615.271484375	32067.76171875	32044.71484375	38881.37890625	34409.29296875	27888.9140625	32842.94140625	32544.208984375	32886.48828125	34818.640625	30596.830078125	32173.87890625	32583.533203125	30263.900390625	28427.26171875	34892.2578125	32959.7421875	32123.798828125	34175.9453125	37524.83203125	34585.44921875	33198.53125	33657.9921875	32292.203125	29122.861328125	34996.73828125	32198.109375	36656.79296875	30056.427734375	32126.162109375	40249.9609375	25444.205078125	32917.3515625	28611.01171875
1500	1800	20241.7734375	23128.2734375	18876.6015625	27323.4375	24230.265625	26459.513671875	26397.546875	20130.279296875	17386.138671875	25897.56640625	213.7543182373047	21266.173828125	26758.1640625	8291.6650390625	19176.5546875	22787.599609375	19188.41796875	27586.212890625	22220.966796875	25441.615234375	26002.14453125	21669.185546875	23617.20703125	15787.103515625	27345.232421875	19466.65234375	-1129.407470703125	12538.9208984375	17978.98046875	24669.287109375	2279.865234375	15756.1748046875	28553.197265625	30611.521484375	27083.740234375	34917.17578125	32427.724609375	27793.5546875	26636.919921875	30138.302734375	27908.9921875	27920.59375	28932.693359375	30307.369140625	29372.75	24892.96484375	19469.779296875	29193.953125	27722.224609375	30173.94140625	29987.5703125	34168.24609375	29713.212890625	28846.984375	28348.240234375	28031.8125	27063.94921875	30017.62890625	27780.466796875	29739.818359375	26608.861328125	27855.330078125	37918.375	26020.763671875	32899.0390625	29237.3359375	25543.103515625	26211.80078125	29475.09375	33957.421875	28765.439453125	25181.806640625	29368.5390625	30320.58203125	30790.974609375	31638.02734375	28117.400390625	28743.259765625	29029.69140625	27425.302734375	25457.341796875	27511.66796875	28217.08984375	29946.7109375	31625.982421875	32596.1484375	30855.623046875	31242.083984375	29830.30859375	29162.599609375	26416.921875	31612.759765625	28451.94140625	31987.931640625	26743.392578125	28524.626953125	35954.48046875	22393.1015625	29949.173828125	26177.927734375
1800	2100	20296.552734375	22093.65625	16451.76953125	23640.513671875	19927.55859375	22835.666015625	25246.30859375	18181.65234375	15497.947265625	23379.08203125	345.32086181640625	15280.5732421875	24424.861328125	2445.37646484375	19244.91015625	22073.322265625	16544.63671875	24529.158203125	19179.404296875	21139.564453125	25162.19921875	17509.509765625	22363.6484375	9741.158203125	24413.23828125	21820.341796875	-1033.0028076171875	12535.5517578125	16053.294921875	23038.53125	2653.026611328125	15886.517578125	26233.154296875	26924.775390625	23501.009765625	30639.453125	27975.029296875	26312.02734375	23716.25390625	26945.990234375	23423.865234375	25334.197265625	25275.0546875	27295.47265625	26543.005859375	22379.302734375	18207.6953125	23608.1640625	23644.154296875	25879.912109375	24446.974609375	28065.625	24842.970703125	25903.30859375	24628.4296875	24521.505859375	24337.685546875	26621.953125	23977.787109375	25852.595703125	23262.205078125	24417.453125	33453.8828125	24212.521484375	32008.27734375	26088.673828125	24582.080078125	24741.7890625	24814.037109375	30703.5546875	25422.78125	23257.341796875	27036.099609375	27446.771484375	27637.279296875	28138.3125	24807.625	27418.462890625	26163.279296875	24075.404296875	22310.44140625	26462.962890625	26055.80078125	25568.474609375	28419.1484375	29866.314453125	27056.650390625	26953.896484375	26356.796875	24916.9765625	22528.03125	27969.19140625	24795.8671875	28079.904296875	24149.28125	25149.283203125	32556.4609375	20389.2265625	28168.373046875	23349.375
2100	2400	19703.53515625	21217.798828125	14280.05859375	20524.966796875	17983.7578125	20302.65625	21866.794921875	15956.73828125	14644.2294921875	18973.63671875	386.7618103027344	10321.9755859375	23146.80078125	-554.5499877929688	18845.6796875	20539.544921875	14571.6552734375	21593.517578125	17048.7890625	19105.896484375	23305.876953125	16113.671875	19768.888671875	9237.2353515625	22990.421875	13201.60546875	-1015.1719360351562	12233.810546875	15446.615234375	22268.150390625	3229.339599609375	15787.47265625	23603.7421875	24824.814453125	20775.82421875	26330.63671875	24666.3359375	24563.611328125	20899.208984375	24806.443359375	18889.599609375	22737.03125	23783.6015625	25316.28515625	23352.359375	20507.95703125	14993.4951171875	21377.8671875	21061.470703125	23667.037109375	21656.451171875	27719.845703125	22744.072265625	21854.234375	21408.537109375	22043.9765625	20336.19140625	23494.453125	21392.353515625	22900.51953125	21067.16015625	21920.048828125	30676.146484375	22116.11328125	27617.591796875	23851.998046875	22821.62109375	23021.197265625	21942.904296875	26959.966796875	22490.837890625	21960.103515625	24005.658203125	25378.634765625	25482.779296875	25380.2734375	22341.939453125	25572.302734375	24562.92578125	21809.681640625	23116.427734375	22529.4765625	25061.34375	23682.40625	24689.201171875	26645.203125	24401.68359375	24059.4609375	23346.82421875	22383.32421875	20704.58203125	25583.53125	21705.244140625	24926.125	21524.81640625	22511.013671875	28555.5703125	21151.107421875	25036.171875	21805.345703125
2400	2700	19374.302734375	20293.29296875	12705.2216796875	18546.46484375	13952.025390625	17298.044921875	19815.767578125	15345.0576171875	13399.072265625	17681.533203125	1105.192138671875	7889.77685546875	19848.603515625	1274.4840087890625	18394.830078125	19916.705078125	12697.46484375	18200.60546875	13347.7705078125	17191.6015625	20027.783203125	14291.486328125	17116.541015625	5603.5625	20251.18359375	9033.0224609375	-803.9271850585938	11950.0283203125	12168.3759765625	20108.166015625	3792.87109375	15661.76953125	20402.78125	23244.94140625	17509.392578125	24036.724609375	24892.91796875	23593.318359375	18030.650390625	22053.296875	18530.25	20445.671875	20858.416015625	22590.1015625	22309.9765625	18375.93359375	14112.294921875	17359.88671875	19081.640625	18774.326171875	20179.5078125	24652.271484375	20507.052734375	19554.265625	18694.119140625	19448.98046875	19769.8359375	21349.32421875	18958.169921875	20431.03515625	19123.77734375	19658.642578125	29104.302734375	20907.185546875	23524.9921875	22248.751953125	21295.076171875	19885.638671875	19794.47265625	23528.578125	20129.90234375	20486.259765625	21995.482421875	22304.076171875	20428.83203125	23075.69140625	19642.931640625	23994.544921875	22437.4140625	19938.791015625	20583.205078125	20434.416015625	21138.849609375	21513.34765625	22485.6171875	24980.14453125	21071.349609375	22533.162109375	21568.2109375	20044.177734375	19076.58984375	23454.35546875	19711.482421875	21967.4921875	19782.91015625	20996.798828125	26911.486328125	17494.638671875	20799.126953125	20452.83203125
