frame_start	frame_end	parasubiculum	HATA	fimbria	hippocampal_fissure	HP_tail	presubiculum-head	presubiculum-body	subiculum-head	subiculum-body	CA1-head	CA1-body	CA3-head	CA3-body	CA4-head	CA4-body	GC-ML-DG-head	GC-ML-DG-body	molecular_layer_HP-head	molecular_layer_HP-body	Lateral-nucleus	Basal-nucleus	Central-nucleus	Medial-nucleus	Cortical-nucleus	Accessory-Basal-nucleus	Corticoamygdaloid-transitio	Anterior-amygdaloid-area-AAA	Paralaminar-nucleus
0	30	1.04081	2.79581	3.1785	9.28952	5.24886	1.06472	12.67623	1.32107	5.46186	0.99357	22.32681	13.51653	6.99787	4.491	8.56299	3.32825	8.77947	1.95307	10.70865	1.88707	2.22988	9.10185	1.24725	2.57298	4.07663	2.1531	1.13942	0.28771
30	60	1775.34137	1545.09209	1269.52406	1220.95683	1122.22099	1322.91985	1390.44718	974.94137	1038.18632	986.67269	1023.10088	903.31507	1068.53078	897.58324	1085.93231	978.6491	1205.44588	993.65277	1172.30165	934.85486	1519.52953	897.02927	584.81159	876.65116	1386.09956	1368.26786	2808.32433	843.05267
60	90	10198.98895	6854.47837	9690.20435	10439.9935	9609.11669	9466.01702	10559.9262	7670.41272	9020.71485	8711.36841	8852.20781	10788.92344	8939.15695	10138.53357	9859.64084	9574.54537	9829.78957	9020.72194	9788.56533	7098.54382	9032.0755	6446.32467	5550.00345	5863.29244	7334.6957	7643.44252	13693.87896	7847.56682
90	120	17301.44738	13208.76573	19417.66698	19248.51293	18300.74352	18061.75587	18386.69472	16514.85704	19030.62665	17070.16582	18415.7617	19992.45466	18919.18376	19844.93391	20849.29507	18583.90042	20643.30813	18387.88394	19876.38637	16763.1512	16545.4357	16642.70358	12358.50942	13265.69102	15457.86564	13950.21884	21102.01663	16309.46954
120	150	26720.4046	22322.14014	27003.92825	28846.82262	24953.73008	28363.33977	26314.70402	25969.36199	26444.66869	25775.37393	27434.13059	29950.11162	26805.6557	30998.91104	28632.50953	29120.07179	28310.28778	28532.5661	27963.9386	22729.13883	24698.90173	22428.46321	18994.73564	20174.32304	23692.64238	23221.71393	25228.81058	25410.14379
150	180	28998.83854	24155.03729	34686.35873	34973.92998	32616.07638	31767.4718	34165.48499	32141.44469	35184.73832	29962.41372	35572.74891	35132.65324	34073.08874	36388.12627	38114.84546	33263.08906	37402.43774	33429.06065	36760.63039	30521.72892	30078.85513	26191.09333	22533.29079	23668.67033	27198.94174	25533.30592	33159.38943	29598.11672
180	240	29146.32229	26275.45191	35071.57835	35372.85172	32441.18786	32857.95108	34605.65875	33047.92549	37862.64212	32244.45091	34179.03721	35885.06815	33052.55699	37225.49756	38126.51941	34822.45268	38390.36877	35081.26919	37141.71385	30452.27261	29693.30943	27224.09151	26378.43555	24619.5525	28558.84472	25520.51687	27674.80416	30489.46871
240	300	28529.25078	24490.99198	34560.78602	33625.88285	32156.66009	33401.98264	31732.56681	32626.5135	34572.56817	31428.82139	30640.63812	33023.45667	31873.65836	34872.88673	34884.35712	32784.5403	34860.50263	34430.31011	33656.59666	32400.81387	30400.66375	25408.08769	22516.08008	22973.4732	27891.89172	24700.75362	27228.9323	32792.20252
300	360	27453.33522	22906.96493	32919.51249	30994.60458	29629.00737	30524.8025	30706.13905	33417.99647	33542.16235	29705.90578	28996.99509	30761.26896	29692.10051	34944.05721	32769.96604	32087.57748	33268.53293	32904.72238	31915.45027	30993.73082	28613.40037	27970.80976	23990.97817	25850.22117	28688.05962	25573.96308	24798.53297	29723.42811
360	480	26731.55052	21136.64787	30443.23318	28615.25494	27551.52939	30340.41689	28790.4534	31422.82337	30081.89687	28187.52897	27322.51315	26356.7229	27185.87241	30284.71747	29693.08519	28971.10197	30134.0128	30762.62199	29292.00965	30367.01589	27694.17953	25594.05412	23482.08433	24519.53802	26079.71232	22755.03624	25160.22381	29250.83926
480	600	24604.55777	19935.32992	27525.75094	25932.34227	25139.18557	27054.89421	25247.1362	27485.12925	27681.43491	25599.18932	22852.01449	23032.82416	23962.58	25965.1734	26751.21788	25064.29125	27181.22513	26948.13749	25888.45812	28573.93185	26536.31111	22844.69706	20608.18084	21693.06105	24497.57928	21054.81324	21999.46263	27196.09771
600	900	19231.71241	16192.28775	22812.44458	20579.09284	19786.08712	21431.37779	20306.97427	22862.90839	22328.93479	20479.11746	19556.85665	18092.81863	20248.00997	20468.36851	21643.31933	20045.92739	22033.28456	21565.47905	21109.92479	24098.31608	21219.98984	20476.49034	19837.57904	20595.18841	20392.13042	17578.1425	19190.20645	21694.62168
900	1200	14566.73457	14206.62026	17800.75129	15702.4782	15018.18239	16505.78903	15864.9419	17944.293	17420.75092	15901.65972	15675.81654	14502.07873	16462.67675	16353.27285	17155.38401	16020.51305	17265.99984	16763.05048	16629.42575	18973.39181	16393.02376	17250.46882	17258.06669	17843.45084	16031.99393	14289.06505	15966.08152	16101.55624
1200	1500	12119.65759	11708.69978	15332.54155	13556.26238	12593.2455	13471.62618	13724.48926	14575.92778	14421.19433	13260.03775	13283.28291	13028.00394	14264.32262	13692.69701	14467.81159	13480.97724	14743.99032	13729.84299	14174.98275	15874.11263	13107.90664	14388.0405	14894.38339	14832.71333	12762.42117	11434.21736	12967.36264	12994.91058
1500	1800	9873.3884	11103.60202	13285.26904	11342.0879	11207.96297	10876.18916	11752.75072	12721.79931	12324.2508	11309.48554	12053.67092	11076.79551	12246.02034	11089.85108	11968.66085	11063.68881	12357.25796	11571.8659	12040.53064	13386.3055	11427.79446	13796.17193	14191.80917	14643.28169	12471.21007	11281.61448	10783.88232	11156.17987
1800	2100	8726.11965	10334.13529	11491.34788	9643.44497	10478.21652	9505.57977	10359.44002	11105.20931	11455.72992	9903.26335	11074.13661	10064.89984	10990.10749	9493.57486	10970.03527	9616.16061	11071.80236	9872.53739	10892.91878	12877.85456	10545.88021	12147.23918	12364.12006	12298.18114	10299.18198	9644.66128	9659.15923	9986.96429
2100	2400	7766.42821	9231.96413	10856.54602	9282.31154	8807.46763	9034.70413	9230.90094	9806.54119	9808.53063	9247.13621	9999.9003	9824.78859	10443.90331	8956.73246	10059.74417	9106.07075	10272.93968	9318.90942	9834.65247	10699.32423	8717.96801	11006.7708	11453.62161	11005.98338	9241.82881	8327.19639	8480.86247	8503.4846
2400	2700	6944.22303	8795.87095	9353.05278	7960.54345	7954.61849	8047.40416	8436.47444	8407.59811	8780.69753	8304.11479	8813.72714	8626.26611	9045.70895	8475.24909	8440.22294	8513.03505	8461.63544	8362.68874	8545.7074	9508.26746	8041.33951	9583.56382	10455.08479	10111.81294	8413.02757	7648.63434	6676.50105	7592.61836
2700	3000	5502.02537	7159.05663	9411.85978	6956.30326	7948.85922	6506.03045	7460.91569	8212.74732	8232.35553	7012.92931	8630.0824	7372.7841	9120.14908	6684.31044	8469.33857	6850.24101	8455.76792	7048.95073	8241.29997	9197.85165	7488.86901	8920.03504	9626.82106	9105.1672	7448.96766	6705.40996	7531.9218	6756.44316
3000	3300	5612.95179	6955.18572	9220.87254	7238.5278	7223.6366	6517.76513	7237.66124	7502.68528	8144.96887	7091.89906	8266.21534	7548.85406	8728.48817	6741.60758	8184.92856	6898.07356	8298.35505	7001.43919	7947.51983	7729.79571	6491.36967	8180.43304	9639.79087	8418.53286	6994.56424	6524.2328	6490.83925	6040.26862
3300	3600	5765.60442	6359.43359	6986.40755	6263.91132	6561.34534	6191.60355	6068.78858	6915.23792	7216.01669	6295.2447	8060.21577	6639.48079	7258.14517	6501.86143	6639.03383	6474.76434	6732.20307	6289.61593	6838.97714	7073.07926	5443.38553	7498.69686	9128.66398	7432.98353	5573.02535	5510.8034	5771.3185	5623.71855
3600	3900	4812.27424	6457.41286	7447.8423	6165.82468	5599.41032	5349.26025	5903.06292	5991.10585	6643.84833	5288.54908	7056.55718	6296.8004	7794.59608	5493.83482	6751.41967	5485.83214	6854.72918	5461.68741	6736.77565	6174.67889	4686.80517	7188.66416	8570.14281	7917.62245	5489.97942	5568.35747	5612.43786	4587.51923
3900	4200	4475.35795	5868.37109	6707.99813	5590.45954	5171.28537	4953.21385	5956.09732	6278.38175	6647.85586	5024.7275	6645.49737	5760.77202	6629.72865	5150.79491	6326.96835	5239.53651	6433.1998	5186.54869	6326.22392	5348.27105	4589.5009	6415.91695	7237.37066	7840.36978	5444.60384	5155.60533	4616.84153	4142.97817
4200	4500	4325.37536	4502.97261	5320.91365	4657.52801	4828.11163	4879.02561	4826.79983	5903.5319	5263.3948	4927.58844	6017.58276	4439.25168	5665.70166	4732.08965	4892.46887	4727.24899	5047.79581	5152.54213	5170.46912	5579.5044	5182.8862	5290.36983	6677.7689	5707.69731	5061.86463	4690.41051	5767.70277	4584.29247
4500	4800	3966.54617	3797.97237	5356.05126	4751.90394	5013.07834	4657.20853	4546.15334	5134.07564	6673.58542	5138.16641	6703.06554	4761.07958	5864.0515	5476.71916	5648.51429	5268.27127	5598.44526	5255.45584	5607.9074	5668.87511	5110.71748	5183.31147	5697.9782	5181.83331	4440.71413	3838.39867	5474.61985	4433.84078
4800	5100	3576.23188	5250.17557	4739.28445	4517.25809	4286.82955	4632.3079	4662.13267	5987.99366	4919.93335	4958.22586	6095.90015	4583.06953	5413.97039	4686.65298	4314.87133	4876.64176	4489.78383	5151.88551	4892.64456	6465.52689	4212.053	4856.29465	5764.05518	5963.69967	4934.15394	4408.85552	4988.6437	3970.43479
5100	5400	3469.20757	5138.73482	4088.94758	4128.64724	4804.25882	3940.10369	3903.81976	5333.45475	4337.73765	4280.97215	6145.16965	4335.13245	4994.52703	3864.29459	4081.87831	4236.06274	4212.05527	4148.70384	4446.15887	5024.75119	4418.02008	5627.52451	6571.0921	5493.46409	4982.31512	4431.37614	4553.39047	4273.39765
