frame_start	frame_end	parasubiculum	HATA	fimbria	hippocampal_fissure	HP_tail	presubiculum-head	presubiculum-body	subiculum-head	subiculum-body	CA1-head	CA1-body	CA3-head	CA3-body	CA4-head	CA4-body	GC-ML-DG-head	GC-ML-DG-body	molecular_layer_HP-head	molecular_layer_HP-body	Lateral-nucleus	Basal-nucleus	Central-nucleus	Medial-nucleus	Cortical-nucleus	Accessory-Basal-nucleus	Corticoamygdaloid-transitio	Anterior-amygdaloid-area-AAA	Paralaminar-nucleus
0	30	1.57951	3.78706	4.9933	20.55391	9.28845	1.49589	21.34861	0.15967	6.1493	0.90912	13.8371	18.97438	11.37965	7.53234	12.25547	5.28361	12.89267	2.59207	14.27225	1.47088	0.83995	1.71646	0.48972	3.21622	4.90252	3.30333	0.13701	0.28006
30	60	2286.96889	1057.23556	1071.67895	1401.54943	1392.61047	1809.41641	1168.07162	867.90547	856.95085	1036.5747	932.2819	977.98835	928.85255	1153.10203	867.30111	1200.75538	961.88819	1093.67341	978.45243	984.29063	1934.93795	1016.73618	615.91534	735.0788	1545.72974	1053.77301	2256.65999	1173.08474
60	90	10212.53263	6383.06197	8890.43498	9964.99536	8897.31691	8866.84547	9490.52842	7620.09637	8940.20215	9377.86708	9465.81955	9964.3153	9242.48045	10291.26993	9319.67429	9458.44201	9454.88386	9059.00068	9560.31628	6781.33002	9026.36908	4967.52123	4669.97967	4799.96683	6537.44621	6651.64943	14601.16512	8976.51946
90	120	17953.00337	13682.87864	18864.24543	20719.0429	17777.3656	18354.34385	17480.99973	16150.41813	20076.60829	18264.87645	19135.08967	21769.704	18732.19942	22026.05732	20666.05064	20496.74325	20743.3648	19191.60602	20040.22786	17649.61912	18050.79725	14764.92372	12459.80407	12949.81081	15542.71085	13117.79851	22978.40031	17544.1683
120	150	28410.80359	24559.38635	28365.34069	30109.15103	24442.9479	29492.53593	26172.98553	26784.89027	27085.87285	26496.53134	29716.57834	31005.66317	28919.42058	33388.98131	30089.62002	31053.92828	29604.03764	29179.77199	29141.3772	23433.5526	25675.82937	21572.76053	18807.12251	19655.55397	23369.53379	24080.75736	25441.06477	24683.33407
150	180	30027.86882	26567.31489	35767.13937	37473.06797	30545.22318	32077.54197	35629.24085	33544.18235	36506.07132	31552.92153	37244.82814	38497.78042	36174.94399	38106.56053	38954.91189	35149.93791	38534.63912	34603.058	38266.47966	29998.848	31009.47639	26493.54479	21649.03764	23135.32962	29964.56698	26697.11155	31324.85922	30955.93204
180	240	29531.54343	26602.19944	35308.339	37480.62933	30378.71657	33834.56587	33937.69471	34965.41613	38900.5808	33940.5113	36214.74987	36589.0607	34102.94824	38165.66914	38662.36798	35722.58245	39246.22359	36411.58004	37789.06596	31450.16418	30644.58958	27168.04063	27196.73224	24751.59329	28590.46014	25398.25968	29045.36617	31109.1404
240	300	28916.81236	27741.62643	34046.07456	33617.64911	31580.88521	33984.5815	33135.83857	35103.2151	35777.00736	33071.34807	32303.20607	33068.67999	32170.13589	34837.89324	35732.65343	33393.46598	35737.10113	35156.24467	34853.1249	33975.21577	30676.68067	25124.48981	22359.85085	22463.63503	29509.83032	27535.14628	27937.31227	32416.66499
300	360	29994.45806	25263.74488	32114.32911	34021.17202	27743.94128	33107.91916	30999.66474	34839.51624	34644.67062	31132.64734	30288.26873	33289.62434	29739.70246	37890.08687	32851.14132	34577.50853	33494.81458	34516.70434	32386.85316	29764.43971	29392.66262	29230.33415	25148.35795	27543.29915	30891.21669	27714.46534	23806.70133	30391.94913
360	480	28538.46065	21422.31886	30917.57868	29929.84041	27138.62838	31497.43802	29717.60143	32521.65984	30985.05661	29483.50444	27690.41291	25895.37047	27820.13735	31691.33875	30301.82532	30277.68341	30737.43919	31746.14048	29949.16198	30197.78995	28461.78403	24938.59706	23682.11541	24141.76797	26958.37794	23879.76315	26682.62805	29353.82797
480	600	26056.80952	21298.94255	27883.00692	27477.41133	24206.3517	28555.81198	25948.74148	28535.53147	29546.49777	26465.0586	23251.35539	23591.03068	23895.67633	27133.52766	27279.41995	26109.6806	27867.57183	27990.54953	26567.48652	27908.08544	27682.57125	21232.55498	20999.5277	20682.99505	24989.81016	22906.959	23889.61305	28245.79858
600	900	19986.64625	16656.7187	23038.85834	21070.51623	19586.62168	22004.62624	20305.82136	24222.98612	22460.86786	20954.68197	20337.14694	18452.12748	20570.80388	20215.74741	21909.93711	19900.64024	22279.98056	22010.01829	21348.25473	25138.32377	22449.58854	21225.60165	20185.68022	20478.25007	21316.35784	18696.39041	20029.40648	22058.1339
900	1200	15256.6946	14188.16554	18355.12867	16387.96515	14870.346	17483.79068	16179.81092	18877.9992	17485.20295	16038.85714	15637.82189	14674.63541	16821.56521	16074.07188	17368.71836	15953.94337	17457.57218	17158.99379	16791.289	19136.95912	16508.31835	18058.26427	17260.59002	18159.76357	16902.64405	15122.99544	16695.80098	16164.04712
1200	1500	12715.66772	12213.49436	15827.84287	14521.69647	11752.56315	14235.99036	13792.40222	15833.5341	14481.92096	13572.93001	13531.80685	13676.28066	14617.78892	14067.39127	14845.74437	13798.81115	15137.04778	14204.39511	14410.74961	16087.38587	13297.25327	15026.64984	15101.69416	14715.87865	13356.47742	12085.30483	13124.62707	12881.61752
1500	1800	10161.86077	11615.35804	13508.37751	11546.65153	11089.27878	10911.3007	11354.54706	12191.16355	11544.78451	11445.81014	11946.10449	11446.03382	12588.60209	11623.19664	11826.12016	11474.84318	12193.66776	11512.54608	11771.17333	13166.17021	11859.16973	13625.04724	13998.56641	14700.35918	12856.09211	12024.85521	10926.95066	11397.00671
1800	2100	8487.46042	10108.51466	12088.78501	10362.51818	10406.68	9610.77177	10028.89762	11296.85525	11378.83994	10208.7941	11516.64018	10972.64803	11737.85594	9639.48008	11489.18856	9575.71805	11575.25222	10289.05793	11165.37829	12721.5183	11094.89592	13165.42436	12564.02326	12369.20736	10956.72636	9668.61995	9616.58715	10080.84328
2100	2400	7565.10318	9017.76056	10864.33989	9364.54495	8370.59643	8478.45983	8855.70056	9700.09741	9528.65897	9156.71865	9971.38311	10074.78042	10569.39187	8563.14705	10113.03354	8723.52487	10360.70606	9191.91998	9767.09193	10873.71147	8579.64496	11190.9989	11995.25666	10988.12484	8871.3561	8043.3905	8066.51121	8469.46105
2400	2700	7165.79391	8998.15041	9366.57305	8441.98415	7788.49785	8484.63092	8000.81604	8559.42463	8907.5761	8493.16288	9012.4588	8707.57275	9602.17762	8636.71113	8632.49123	8648.06121	8515.20597	8637.42428	8617.71206	9676.32577	8279.57039	9707.21002	10418.05096	9711.19372	8612.36878	8182.87041	6893.2965	7446.07495
2700	3000	5225.84187	6682.65778	9423.62373	7457.6011	7609.30477	6191.29923	7532.15451	8108.62378	8597.34708	6891.51254	8760.24871	7854.49486	9272.41811	6847.25474	8734.95739	6870.5401	8621.83665	6969.02826	8434.66232	8950.11284	7539.38107	9086.15818	9226.24094	8729.58934	7770.97544	6645.32497	6983.78277	6465.09982
3000	3300	5433.59801	7817.87033	8890.54803	6832.96243	7050.00999	6362.10099	6720.86199	7795.01577	7411.12083	7535.39874	8007.07339	7897.45275	8536.35344	6527.84238	7556.37987	6908.15413	7601.60189	7180.54582	7400.42347	7249.80741	6715.15194	8993.87929	10199.12287	9018.63118	7841.94128	7267.06355	5735.90889	6108.3326
3300	3600	5834.37113	6784.97891	6499.32689	6171.38234	5971.38687	6494.27279	5748.14461	7042.88971	6585.05263	6298.12013	8307.10659	7410.26063	7176.00225	6520.56934	6224.31472	6561.88503	6228.47162	6552.249	6469.42038	6485.76725	4811.81284	7535.0967	9249.22239	7698.55233	5603.25935	5803.3018	4517.69579	5002.47998
3600	3900	4542.13602	7517.85253	7869.62496	6166.75645	5269.07855	4647.54854	5471.95116	5830.15134	5240.34814	5584.31151	6671.02379	6660.04311	8063.61475	5689.75284	6587.3002	5812.08481	6487.76027	5308.08521	6328.02453	6901.89385	4792.00743	7661.67685	8681.80451	8370.08654	6473.22956	6660.95798	5838.99769	3705.8048
3900	4200	4438.27776	7437.83108	6000.70638	5116.55336	4639.9289	4653.68344	5406.70688	5289.58396	5446.48989	4921.05018	6027.04339	5433.81745	6052.87702	4733.36783	5400.95931	4989.35793	5426.68856	4825.7192	5540.37832	5221.38324	4587.13462	6600.23497	7539.03973	8797.77254	6114.59513	5827.68524	4825.4223	4029.18999
4200	4500	4516.52932	4200.49243	4687.14512	4036.67186	4277.32978	4557.39556	4023.61772	5783.86007	5125.88554	4454.5392	6156.53155	3750.17966	5368.38279	3239.29998	4710.14204	3540.24981	4843.83055	4380.51624	4846.89249	5755.65147	5105.67825	5194.3784	7087.3267	5360.50656	4730.95155	4606.22131	6014.92416	4688.79022
4500	4800	3654.10916	4291.69948	5426.69467	4874.5604	4864.94425	4811.2171	4463.70992	5441.34186	6356.92646	5351.08556	6605.26152	4942.35312	5610.70006	5730.6088	5473.91491	5457.39152	5547.56754	5551.82443	5450.63033	6041.73015	4579.8111	4927.93545	6010.7219	5310.2085	4192.95465	3949.5432	4602.96986	4712.76441
4800	5100	3429.63939	4261.8963	3859.18932	3879.89674	3306.46123	4398.99706	4122.21439	5889.917	4034.91923	4656.73113	5670.01832	4393.98018	4889.16465	4389.28417	3473.52736	4644.19065	3617.0924	4758.7947	4170.14579	5994.50278	4070.17439	4926.38603	5879.6373	5803.42137	4421.3067	3661.18115	3866.01687	4051.7326
5100	5400	2986.07036	5425.26938	3587.98721	3903.04873	4900.31291	3516.03697	3667.81145	4252.63497	4180.5076	4615.49607	5727.95536	5139.96164	4545.87136	4472.46829	3825.49504	4712.43769	3881.49113	4341.56876	4191.19132	4889.37851	4650.44414	7343.36223	7870.80904	6754.82485	5586.16574	4504.0299	5184.43231	3766.86148
