frame_start	frame_end	Left-Cerebral-White-Matter	Left-Cerebellum-White-Matter	Left-Cerebellum-Cortex	Left-Thalamus	Left-Caudate	Left-Putamen	Left-Pallidum	Brain-Stem	Left-Hippocampus	Left-Amygdala	CSF	Left-Accumbens-area	Left-VentralDC	Left-choroid-plexus	Right-Cerebral-White-Matter	Right-Cerebellum-White-Matter	Right-Cerebellum-Cortex	Right-Thalamus	Right-Caudate	Right-Putamen	Right-Pallidum	Right-Hippocampus	Right-Amygdala	Right-Accumbens-area	Right-VentralDC	Right-choroid-plexus	AirCavity	Skull	Vermis	Pons	CSF-ExtraCerebral	Head-ExtraCerebral	ctx-lh-bankssts	ctx-lh-caudalanteriorcingulate	ctx-lh-caudalmiddlefrontal	ctx-lh-cuneus	ctx-lh-entorhinal	ctx-lh-fusiform	ctx-lh-inferiorparietal	ctx-lh-inferiortemporal	ctx-lh-isthmuscingulate	ctx-lh-lateraloccipital	ctx-lh-lateralorbitofrontal	ctx-lh-lingual	ctx-lh-medialorbitofrontal	ctx-lh-middletemporal	ctx-lh-parahippocampal	ctx-lh-paracentral	ctx-lh-parsopercularis	ctx-lh-parsorbitalis	ctx-lh-parstriangularis	ctx-lh-pericalcarine	ctx-lh-postcentral	ctx-lh-posteriorcingulate	ctx-lh-precentral	ctx-lh-precuneus	ctx-lh-rostralanteriorcingulate	ctx-lh-rostralmiddlefrontal	ctx-lh-superiorfrontal	ctx-lh-superiorparietal	ctx-lh-superiortemporal	ctx-lh-supramarginal	ctx-lh-frontalpole	ctx-lh-temporalpole	ctx-lh-transversetemporal	ctx-lh-insula	ctx-rh-bankssts	ctx-rh-caudalanteriorcingulate	ctx-rh-caudalmiddlefrontal	ctx-rh-cuneus	ctx-rh-entorhinal	ctx-rh-fusiform	ctx-rh-inferiorparietal	ctx-rh-inferiortemporal	ctx-rh-isthmuscingulate	ctx-rh-lateraloccipital	ctx-rh-lateralorbitofrontal	ctx-rh-lingual	ctx-rh-medialorbitofrontal	ctx-rh-middletemporal	ctx-rh-parahippocampal	ctx-rh-paracentral	ctx-rh-parsopercularis	ctx-rh-parsorbitalis	ctx-rh-parstriangularis	ctx-rh-pericalcarine	ctx-rh-postcentral	ctx-rh-posteriorcingulate	ctx-rh-precentral	ctx-rh-precuneus	ctx-rh-rostralanteriorcingulate	ctx-rh-rostralmiddlefrontal	ctx-rh-superiorfrontal	ctx-rh-superiorparietal	ctx-rh-superiortemporal	ctx-rh-supramarginal	ctx-rh-frontalpole	ctx-rh-temporalpole	ctx-rh-transversetemporal	ctx-rh-insula
0	30	16.11489486694336	-4.177563190460205	5.721728801727295	25.822389602661133	11.711871147155762	8.524024963378906	38.98531723022461	10.88980484008789	7.821110248565674	19.72074317932129	24.147804260253906	49.315555572509766	12.081658363342285	119.49262237548828	20.67270851135254	-0.8279904723167419	7.473940849304199	55.102272033691406	-1.4310331344604492	9.177196502685547	115.61128997802734	-12.022488594055176	31.851333618164062	-6.340386867523193	78.90437316894531	137.03758239746094	-3.3253121376037598	9.764948844909668	-6.952051162719727	-4.597976207733154	13.006399154663086	8.204696655273438	11.137163162231445	72.78221130371094	58.902347564697266	14.610719680786133	-15.249679565429688	-10.088421821594238	40.3278923034668	1.707351803779602	34.696842193603516	37.2881965637207	-22.12800407409668	42.092315673828125	10.241300582885742	11.13701057434082	-9.339422225952148	-1.5443881750106812	108.50178527832031	10.055228233337402	46.75194549560547	56.5511589050293	26.827598571777344	7.106301307678223	21.540515899658203	25.216020584106445	4.64340877532959	40.573089599609375	35.880577087402344	5.439764022827148	54.1652946472168	15.942852973937988	11.729894638061523	-17.916757583618164	225.65000915527344	115.03888702392578	-1.8676310777664185	102.75333404541016	14.031000137329102	69.06649017333984	-4.452640056610107	-14.283369064331055	24.239492416381836	-4.679628372192383	-1.2376245260238647	54.743385314941406	3.869328498840332	76.66619110107422	34.45669937133789	16.760665893554688	-5.328311920166016	-31.49807357788086	138.56837463378906	48.27690887451172	40.72574234008789	140.5754852294922	15.514199256896973	-1.4927140474319458	28.973886489868164	21.32471466064453	93.33091735839844	37.203857421875	24.897192001342773	-12.678418159484863	28.158140182495117	84.05442810058594	-27.952680587768555	-23.827665328979492	59.203392028808594	40.52973937988281
30	60	1135.0030517578125	2480.658203125	3770.002197265625	6113.97021484375	6063.03662109375	6215.70166015625	2672.71337890625	3576.171142578125	4046.11962890625	4407.529296875	390.84942626953125	9507.18359375	4126.0537109375	6424.22607421875	1294.30029296875	2025.3819580078125	4239.806640625	5399.33935546875	5858.673828125	5222.14111328125	3127.71728515625	4262.25244140625	4083.5986328125	8823.2392578125	3621.40087890625	7941.12744140625	443.18341064453125	1117.53857421875	1811.510986328125	2898.02685546875	2915.47705078125	1097.9949951171875	6142.853515625	7267.41650390625	6743.67236328125	8824.74609375	6845.189453125	5490.3154296875	5647.67431640625	4406.38671875	5888.9072265625	6263.9892578125	6312.24169921875	7460.8759765625	8068.9931640625	5037.89111328125	4641.71630859375	4881.89013671875	7271.9326171875	5948.61181640625	7102.2646484375	11688.80859375	6514.6767578125	6323.68701171875	6896.15185546875	6534.3798828125	6586.251953125	7013.4296875	6591.42578125	5259.13427734375	5527.59423828125	6798.0625	6554.3095703125	3356.43115234375	7719.23193359375	8182.33203125	5693.70947265625	7738.95361328125	5722.6513671875	7044.552734375	6520.2578125	4449.7333984375	5157.40625	3893.502197265625	6615.7109375	5659.83203125	6456.23486328125	6303.73095703125	6039.65234375	4274.68310546875	3577.927978515625	5332.208984375	6561.41552734375	5983.251953125	6801.5537109375	9925.3759765625	5959.240234375	8049.81982421875	5975.865234375	6288.9326171875	6085.47119140625	6012.06396484375	6317.22607421875	4470.328125	4975.11865234375	6611.677734375	6312.2314453125	4211.6103515625	8942.662109375	7732.78271484375
60	90	4236.13818359375	8997.2705078125	14637.33984375	20022.60546875	25231.033203125	24216.982421875	8521.3837890625	10243.806640625	16528.439453125	14483.4130859375	1283.3050537109375	20849.625	13051.767578125	29473.345703125	4436.90478515625	8191.767578125	15465.015625	18872.1328125	20207.072265625	21003.509765625	10312.8232421875	15331.693359375	15190.23046875	27549.853515625	11777.951171875	31073.271484375	1627.3773193359375	3407.005126953125	15407.7548828125	11444.111328125	6803.77392578125	3507.61279296875	20286.765625	21122.337890625	27445.380859375	29671.5859375	22959.458984375	17798.7578125	21012.84765625	18535.54296875	21376.884765625	23463.59765625	22497.931640625	24118.712890625	27251.208984375	19534.947265625	11412.8408203125	20634.890625	24477.267578125	24072.166015625	24903.712890625	41597.1875	23702.396484375	21394.677734375	24820.541015625	22990.470703125	23049.244140625	26712.595703125	24381.701171875	20432.9453125	18584.32421875	23633.76953125	30308.46875	15004.0546875	32255.99609375	22075.66796875	20805.4140625	22329.50390625	23136.421875	28344.03125	21297.41015625	16489.685546875	20771.017578125	16324.5791015625	25765.09765625	24590.296875	22222.123046875	24297.84765625	24675.810546875	17717.11328125	12005.7060546875	23247.37109375	22205.869140625	21642.74609375	22754.7734375	35870.3046875	23481.6484375	24545.46875	23262.55859375	22974.8515625	19525.41796875	23950.642578125	23190.875	20741.572265625	17956.0703125	22187.955078125	23864.896484375	17274.755859375	35443.73828125	21135.587890625
90	120	8345.216796875	16031.1259765625	28792.8984375	36689.69921875	46239.9375	44172.5390625	20206.28515625	19339.94921875	28728.296875	25326.01953125	2874.057373046875	35403.45703125	23722.01953125	54345.7890625	8354.201171875	14367.15625	30425.615234375	36317.46875	41903.5	41706.9140625	16494.326171875	27197.3125	22152.890625	42091.3515625	24544.8203125	51091.953125	2895.914306640625	5804.4677734375	28499.185546875	22252.189453125	10068.3671875	6177.5947265625	43270.1953125	40723.49609375	50438.5859375	59827.234375	34992.8203125	34750.66015625	40491.98828125	37123.578125	42431.84765625	47265.79296875	42191.03125	47072.8515625	41437.640625	37884.984375	24340.173828125	39924.984375	49690.52734375	45078.9921875	49207.09765625	79805.3203125	45711.97265625	44427.9921875	46727.625	46025.33203125	43224.8125	53400.203125	47292.99609375	40706.79296875	35843.8359375	44937.91796875	54060.171875	27781.21875	59490.94140625	38982.69921875	40333.60546875	42682.015625	46127.18359375	57294.70703125	37766.32421875	32000.8125	42283.63671875	32921.9140625	46003.31640625	48741.5703125	43483.32421875	45470.6875	46731.8984375	35519.1484375	21387.826171875	45265.65234375	44456.23046875	41814.3046875	44218.625	70582.53125	48148.59375	48382.3046875	45141.15625	45510.91796875	39812.578125	49795.53515625	45481.2109375	41963.75390625	34292.68359375	42753.48828125	47699.8828125	31107.697265625	64150.640625	37986.03515625
120	150	11389.548828125	23654.34375	42889.515625	52555.2265625	67449.9765625	67087.21875	28965.2890625	29115.865234375	43532.6875	32446.26953125	4145.03955078125	51427.51171875	33209.8125	70168.734375	11610.486328125	22952.564453125	43591.28515625	51780.28125	59952.33984375	63618.87890625	29534.84375	41088.953125	36479.203125	51487.9453125	33029.390625	80638.84375	3540.489013671875	7727.7236328125	40535.296875	32798.74609375	11219.1904296875	8720.13671875	60645.359375	56894.3203125	75347.421875	88644.7265625	55612.59765625	46930.83203125	60585.56640625	53586.40234375	60782.88671875	68596.09375	62654.6953125	72932.828125	65314.1484375	56726.4765625	32207.841796875	61761.125	69392.6796875	64334.08984375	71783.0078125	119971.359375	68061.3984375	60862.76953125	67887.2734375	68159.0	62464.71875	77726.390625	69993.9765625	63673.73046875	53174.3828125	66300.765625	76721.5	40293.33984375	85355.703125	52579.21875	64555.296875	54006.1640625	70044.1953125	81225.046875	49802.609375	46427.6875	62281.49609375	49689.06640625	59885.51953125	72885.5390625	62919.609375	62533.41796875	64825.453125	53945.50390625	34586.83984375	67491.34375	63561.99609375	60032.5703125	67085.1171875	114578.8515625	71254.03125	62286.953125	66855.8125	68979.3203125	58975.5234375	72088.4609375	68491.8046875	66084.796875	49358.73046875	63951.56640625	71056.984375	45793.2734375	75125.0625	48196.12109375
150	180	12785.4208984375	27698.1015625	47697.0859375	60347.046875	78834.0390625	73664.0703125	30129.529296875	30609.396484375	49149.6953125	39928.26171875	4500.69287109375	48771.83984375	35172.046875	69253.6171875	12603.0576171875	26103.65625	48778.95703125	59804.50390625	70604.3203125	72079.0234375	27613.2734375	45853.47265625	37570.10546875	52397.203125	38612.04296875	78667.46875	3330.362548828125	7641.86767578125	48475.734375	35703.41796875	8562.3486328125	9195.9814453125	67790.34375	67827.890625	88333.625	101391.4453125	49882.5	53564.3359375	70460.390625	61238.22265625	63953.34375	79291.8203125	72372.390625	79601.765625	71511.03125	64929.6015625	34498.01953125	74934.375	82651.0078125	75444.8203125	81511.1875	129875.3515625	79475.328125	61394.3359375	77874.90625	76935.625	64759.48046875	87549.8203125	79900.8984375	72447.0859375	59944.1953125	76242.671875	84236.90625	47550.35546875	93846.4140625	56403.90234375	71978.1328125	59157.375	82006.6640625	90690.2421875	54884.15625	57834.6484375	75248.25	57411.25	65433.75390625	83571.203125	69140.296875	72505.59375	68058.9453125	61601.74609375	35346.515625	77677.6484375	71555.65625	68332.421875	74989.171875	126510.828125	81522.5390625	71690.6875	75917.6015625	78305.15625	63082.06640625	81775.09375	77113.3984375	77893.015625	57171.1953125	72236.5625	86228.3359375	48932.06640625	96033.1484375	53468.9296875
180	240	13453.2265625	25759.59765625	48446.1640625	60362.41796875	77657.3984375	76420.6953125	33538.97265625	29911.046875	42920.34375	39967.09375	3919.44921875	53578.91796875	34565.77734375	60942.625	13147.7490234375	24818.75390625	50435.796875	60268.5703125	75863.2890625	72740.6796875	28052.724609375	45299.06640625	40802.19140625	35649.0	36909.6328125	69369.0390625	2978.599609375	7096.60498046875	43611.47265625	38049.94921875	6351.4375	9293.115234375	68711.5	67901.125	86402.625	100939.6796875	53402.7109375	53511.2578125	71745.5625	61873.8671875	64819.69921875	78768.5234375	69247.1484375	78211.3359375	68926.578125	65566.3359375	36654.359375	71677.3828125	76208.9296875	75545.1796875	78912.7265625	124810.3125	80435.671875	68300.03125	78826.5234375	77592.796875	70076.3046875	88159.5625	79965.8671875	76059.4765625	60980.4609375	74857.0234375	86947.703125	46889.88671875	93322.1875	55585.59765625	74368.3515625	58530.47265625	81957.9453125	96936.8203125	52580.13671875	53644.65625	76020.2578125	59244.63671875	66660.8125	86137.7734375	68656.8515625	72709.6171875	72982.2265625	63152.23046875	36385.140625	75084.4765625	71158.296875	69962.1640625	78465.796875	120733.9296875	83861.9609375	71309.8515625	77802.265625	78511.8828125	61262.68359375	84546.2421875	78456.6953125	79732.7734375	58105.0390625	72410.0625	78214.359375	47110.09765625	94354.3515625	52932.390625
240	300	13560.361328125	25523.232421875	45493.9453125	56467.203125	73803.1640625	70912.265625	33288.2265625	29316.494140625	41848.8984375	41021.84765625	2874.000732421875	48131.26953125	30656.275390625	49316.47265625	13303.3486328125	25199.451171875	47258.2890625	56418.4765625	68710.7265625	66952.0	29600.748046875	42195.171875	39428.76171875	50569.3046875	36591.96484375	54331.61328125	2773.594482421875	6686.9814453125	47214.36328125	35635.69140625	4673.783203125	9268.869140625	64454.96875	62387.5703125	80568.9609375	92758.03125	53361.40625	53170.45703125	66284.46875	57318.03515625	60077.47265625	74104.9765625	65942.546875	73226.1953125	63801.7890625	63143.76171875	36379.22265625	71057.3359375	72780.7578125	70061.4609375	74546.4375	113541.90625	74229.328125	64640.6875	72816.2578125	71663.0546875	64037.0625	82161.109375	74673.8984375	72563.78125	56186.15625	69762.75	79183.296875	46022.61328125	82491.2421875	54727.68359375	72141.4140625	57233.53515625	76847.1484375	91502.2890625	49451.24609375	53608.65625	71919.6796875	57263.1953125	62344.71875	80937.875	64071.23046875	67913.3515625	65512.765625	60864.47265625	34686.890625	70212.2890625	64800.23046875	65711.59375	73471.703125	105397.9296875	76522.953125	66144.7265625	72776.4296875	73051.4453125	61541.1171875	78307.7421875	73599.2578125	75952.7578125	56288.86328125	69591.8515625	72974.296875	47116.59765625	81070.03125	50263.7421875
300	360	13731.828125	24047.392578125	42501.6015625	53463.203125	67083.3046875	63994.2734375	32427.8046875	28302.830078125	37505.79296875	41869.2421875	2515.597412109375	45304.4296875	30788.09765625	36776.7734375	13634.1796875	23415.33203125	43418.94140625	53395.38671875	62247.828125	64308.4609375	30648.73046875	38118.703125	39164.08984375	44723.7421875	34735.62890625	43770.90234375	2185.15625	6397.84716796875	42361.9140625	33034.80078125	3776.714599609375	9025.4873046875	62820.0234375	56196.89453125	73975.3046875	84242.3359375	49274.38671875	48000.4921875	60469.1015625	53245.55078125	52400.6484375	67061.296875	60184.91796875	67726.3046875	58913.1796875	58799.171875	35633.92578125	61684.0546875	65537.9375	62280.34765625	65545.3203125	100745.5234375	66537.359375	58668.34765625	65723.21875	65256.90234375	59173.46875	73303.140625	68339.734375	66451.140625	53148.63671875	63592.40625	75785.25	44244.73046875	77619.9140625	51293.01171875	65652.2421875	50703.71875	69627.6875	80992.84375	46757.20703125	50161.15234375	66022.1328125	52107.85546875	55184.6015625	74818.53125	58778.76953125	62500.44921875	60593.6875	56881.125	33763.1171875	65830.765625	61077.40234375	60170.375	66427.953125	96460.6640625	69359.640625	58599.921875	65586.6875	67117.0234375	55184.47265625	72214.0625	67303.5390625	70581.6171875	52828.78515625	62574.6328125	65386.5	43517.4765625	67905.1015625	47087.2109375
360	480	14016.6044921875	22695.25390625	37243.85546875	48499.78125	59564.2421875	57772.421875	31731.30859375	26741.5078125	34678.25390625	35838.92578125	1720.774169921875	35318.76953125	30405.005859375	30808.974609375	13836.796875	22389.724609375	38384.65625	48249.16015625	55807.7265625	55553.60546875	30055.1875	34743.90625	37687.75390625	38965.4765625	31064.875	38027.6328125	1780.911865234375	6233.00732421875	37278.3359375	31068.068359375	3044.235595703125	9065.951171875	52633.1015625	50490.72265625	61064.53125	73649.109375	45363.6015625	43939.23828125	52055.48046875	47668.87109375	44263.21875	56791.140625	52375.63671875	58718.65234375	51954.11328125	51963.12890625	29235.1875	53535.78125	55215.28515625	53638.1796875	58551.90625	78497.875	56950.9765625	51472.76171875	57790.08984375	55708.00390625	53482.10546875	64123.375	58955.94921875	57064.296875	48058.01171875	54784.1015625	60911.34375	41735.03125	59235.12890625	45848.7734375	56688.33203125	47322.26953125	60202.3671875	69389.6953125	43426.1953125	44887.12890625	57608.46484375	47562.41015625	50116.62890625	63959.0234375	51107.32421875	53788.61328125	53846.01953125	50038.45703125	31316.255859375	54630.75	51745.23046875	52734.5078125	56586.91796875	76902.7890625	60424.17578125	49450.8359375	56505.16015625	57046.91015625	48845.55078125	62691.796875	58406.87109375	59621.9921875	47294.07421875	53855.47265625	58292.01953125	41161.69921875	57765.890625	42946.3125
480	600	14319.802734375	22182.9375	31483.9140625	42535.9140625	50273.67578125	48727.6328125	29688.068359375	24526.822265625	29403.37890625	35591.26171875	1328.1864013671875	29944.59375	28684.689453125	23851.04296875	14025.01953125	21797.662109375	32447.51171875	43777.0546875	46672.7265625	47167.78515625	26345.29296875	30613.93359375	34045.609375	29947.1796875	29146.857421875	32388.626953125	1423.197998046875	6228.111328125	31529.09375	27583.064453125	2744.885009765625	9010.3056640625	45040.0703125	41412.89453125	50817.8828125	60892.01953125	42150.69921875	37701.14453125	43728.98828125	39796.51171875	37267.6640625	47315.4765625	42408.50390625	48407.02734375	44810.8125	44289.5078125	27166.611328125	43513.85546875	46462.546875	46151.8125	47841.5703125	59573.0703125	47643.36328125	41735.609375	47083.27734375	46652.2109375	43964.68359375	52578.20703125	48898.25	46536.171875	41084.97265625	45737.328125	52125.5546875	40220.94921875	52062.4453125	41065.1015625	47243.9921875	39927.23828125	48353.03515625	58593.24609375	39011.8359375	38868.1015625	48712.359375	41037.27734375	39880.22265625	53502.0625	43533.10546875	45018.59765625	45406.17578125	42080.60546875	27903.3671875	46775.80078125	42156.359375	44161.66796875	46641.19140625	60043.41015625	48741.77734375	42457.109375	46358.3125	47641.26953125	42355.50390625	51741.734375	48538.671875	49836.90625	41090.90625	45160.3203125	44049.984375	39105.01171875	48743.46875	37702.62890625
600	900	14898.7939453125	21034.25390625	25533.427734375	35857.59765625	39326.9765625	37468.23046875	28882.103515625	22336.4140625	24870.80078125	31381.390625	646.7491455078125	26433.998046875	25526.203125	17934.931640625	14513.541015625	20722.873046875	26220.47265625	36044.2890625	35198.1328125	37364.2578125	27050.890625	26838.5078125	30530.900390625	27875.5546875	26536.228515625	26585.064453125	811.0463256835938	6372.78857421875	25066.904296875	25081.056640625	2042.128173828125	9223.716796875	35254.39453125	34168.15625	39953.2421875	48908.37890625	36213.60546875	31556.138671875	34872.296875	32424.96875	31550.056640625	37461.28515625	34744.71484375	37709.4296875	36372.578125	35913.125	22813.072265625	34338.77734375	36451.98046875	36541.0703125	37214.16015625	44000.703125	36732.71875	34464.88671875	37705.45703125	36994.05859375	35269.01171875	41928.08984375	39016.015625	37030.8828125	34726.33203125	36283.76953125	42082.6640625	34913.22265625	38937.265625	34623.21484375	37696.96875	33503.4296875	39581.20703125	47207.765625	34454.01171875	32045.2109375	39298.12890625	33757.43359375	33109.6640625	42707.30859375	35653.71875	36928.46875	38023.98046875	34642.21484375	25563.58203125	36237.4609375	32799.1328125	35811.03125	37465.7421875	43485.15625	38913.4375	33631.92578125	37005.14453125	37550.91015625	33863.4375	41511.19921875	38472.67578125	39928.4375	34124.52734375	35469.140625	33592.73046875	32262.380859375	39222.55859375	32744.576171875
900	1200	15963.1533203125	21212.35546875	21145.607421875	31179.66015625	31995.60546875	30613.974609375	27346.208984375	20562.787109375	21986.45703125	26267.755859375	179.7449493408203	21853.1015625	24726.072265625	16262.154296875	15399.470703125	20977.208984375	21659.330078125	31107.5	28178.716796875	29643.244140625	26742.826171875	22522.275390625	28368.28125	20403.806640625	24754.869140625	24951.005859375	500.758056640625	6883.2626953125	21637.314453125	23131.662109375	1844.7637939453125	9950.013671875	30376.62109375	30291.94921875	32885.69921875	41313.890625	33330.796875	26922.3203125	29021.474609375	28471.310546875	26039.05078125	31065.55859375	29407.033203125	30959.677734375	31556.65625	29260.59375	19445.6015625	28826.318359375	30201.03125	30529.810546875	30114.052734375	33687.703125	29822.87890625	28760.626953125	31497.8359375	30664.015625	30467.548828125	34982.80078125	32468.9921875	30211.138671875	29509.361328125	29239.18359375	33402.484375	30706.23046875	33350.50390625	29298.08203125	30729.61328125	28502.875	33025.0	39550.421875	32125.197265625	27257.494140625	32804.4375	29176.07421875	28939.201171875	36262.84375	29181.365234375	30966.66796875	31681.595703125	29635.671875	22349.583984375	29975.416015625	28865.94140625	30377.33984375	32004.693359375	35550.0859375	32105.57421875	28815.392578125	31224.373046875	30856.525390625	28291.052734375	34747.375	32430.70703125	32898.5625	29371.49609375	30081.0625	25284.853515625	28460.20703125	33416.0546875	28413.205078125
1200	1500	16269.9248046875	20421.091796875	17336.072265625	25470.263671875	24792.28515625	23483.056640625	25967.546875	18934.240234375	18214.951171875	25036.404296875	-65.32132720947266	14189.578125	21760.212890625	11762.6123046875	15602.7431640625	19732.27734375	17625.771484375	26075.0859375	21948.890625	23763.2265625	23740.755859375	19268.900390625	23059.423828125	17972.85546875	22385.76953125	20215.19140625	119.9999771118164	7215.52685546875	17313.70703125	21214.224609375	1629.7880859375	10184.466796875	24874.916015625	24344.337890625	26731.66015625	35846.0234375	29041.1484375	23057.349609375	23460.927734375	24055.857421875	22615.560546875	25416.30859375	24431.83203125	26318.51171875	26372.337890625	23964.310546875	17634.408203125	23386.5	24715.26953125	24834.64453125	24662.49609375	27871.47265625	23974.3828125	23508.013671875	25863.16796875	25078.634765625	25155.55859375	28034.318359375	26579.15625	24951.763671875	25053.09375	23935.361328125	25708.740234375	26118.375	28460.47265625	24853.083984375	25119.8828125	23705.955078125	27384.603515625	32349.822265625	26106.53515625	23972.5703125	27261.46484375	24379.59765625	24446.638671875	30670.4140625	24894.923828125	26579.712890625	25657.19140625	24642.498046875	20889.15625	25532.546875	23430.0859375	24721.029296875	27121.583984375	28903.3671875	25851.546875	25018.9921875	25895.546875	26217.6015625	23436.1953125	28931.076171875	26711.068359375	27178.90625	24834.037109375	25024.57421875	21714.142578125	25611.416015625	28225.953125	23384.21484375
1500	1800	16162.6064453125	18803.255859375	14380.484375	21378.462890625	19712.990234375	19260.40625	21032.326171875	16244.4501953125	15772.189453125	19679.546875	-124.66523742675781	15040.158203125	20153.26953125	8435.7392578125	15700.48828125	18443.283203125	14735.9482421875	21685.822265625	18056.220703125	18229.46875	22010.2421875	15351.4462890625	20601.994140625	12660.2265625	20846.43359375	13034.3232421875	-337.0338439941406	7415.2734375	13753.9208984375	19137.33984375	1169.0364990234375	10359.31640625	21214.2890625	22061.341796875	22048.75390625	29000.09765625	24668.83203125	20349.47265625	19866.607421875	21482.423828125	19897.798828125	21341.9609375	21270.9140625	22382.3203125	22358.44140625	20131.205078125	15765.701171875	20549.439453125	20999.107421875	21993.767578125	21763.966796875	22326.279296875	19966.5	20408.42578125	21576.708984375	21990.583984375	20751.27734375	23712.49609375	22477.185546875	21232.375	21096.03515625	20431.130859375	24313.259765625	23216.1484375	24495.890625	21651.708984375	22835.326171875	20165.5703125	23248.9375	29245.34375	22867.06640625	21021.21484375	23097.166015625	21249.48828125	20987.986328125	26334.88671875	21702.021484375	22600.453125	22585.4140625	21048.5625	17482.8125	21761.353515625	20036.89453125	22592.939453125	22406.166015625	23690.642578125	21934.8515625	21959.267578125	21253.615234375	22893.4375	20242.431640625	24423.23046875	23010.396484375	22809.23046875	20857.748046875	21128.076171875	18426.712890625	22652.26171875	23994.013671875	20449.408203125
1800	2100	15984.6611328125	17514.1953125	11893.27734375	17865.5390625	14933.1279296875	15366.3642578125	21760.724609375	14485.3583984375	12679.263671875	18442.076171875	-33.77788162231445	5096.62060546875	17921.841796875	8247.9306640625	15362.4208984375	17599.216796875	12072.8193359375	17966.00390625	13487.9541015625	15203.2470703125	18776.416015625	14424.564453125	17122.513671875	12039.1884765625	18872.572265625	12919.36328125	-642.029052734375	7451.25146484375	11750.328125	16961.060546875	1104.27197265625	10426.4755859375	17158.84375	19470.498046875	18522.5546875	27024.22265625	20972.1015625	18352.095703125	17322.6875	19033.341796875	16734.921875	18129.9921875	18821.11328125	20515.58203125	18331.154296875	17026.212890625	15334.296875	17517.541015625	18763.98046875	18649.19140625	18489.58203125	19304.0	17307.47265625	18182.50390625	18415.28515625	18795.701171875	17265.708984375	19712.71484375	19143.6796875	18293.470703125	17670.640625	17632.755859375	20802.54296875	20784.083984375	21695.806640625	19077.603515625	19873.759765625	17227.0	18861.654296875	25559.734375	21330.001953125	19270.203125	20298.576171875	19270.71875	18527.658203125	23417.611328125	19068.8203125	20124.01953125	18342.123046875	18099.8359375	15217.427734375	18640.892578125	18374.248046875	20635.34765625	19825.689453125	20549.736328125	18677.708984375	18405.490234375	18871.76953125	19539.22265625	17776.01171875	20928.556640625	19407.345703125	20465.720703125	18182.162109375	18438.564453125	17504.611328125	17976.18359375	17871.48046875	18335.529296875
2100	2400	15679.0283203125	16169.732421875	10248.7509765625	15609.41015625	11160.4482421875	12633.8486328125	19406.447265625	13022.12890625	11143.978515625	15522.4892578125	23.359169006347656	5323.54736328125	16019.982421875	6272.75048828125	15091.9599609375	16169.16015625	10560.7724609375	15004.78515625	11215.34765625	12522.525390625	17056.173828125	12318.876953125	14673.8681640625	7984.11865234375	16465.904296875	9750.005859375	-839.3839111328125	7440.0263671875	10340.48828125	15607.2109375	1195.58935546875	10435.7666015625	16143.48046875	15430.5458984375	14961.30859375	23187.77734375	17940.255859375	16677.2421875	15208.4306640625	17864.81640625	15508.26953125	16214.9462890625	17004.298828125	18861.822265625	16249.611328125	14320.658203125	13287.5244140625	15257.7578125	16988.90234375	18319.927734375	15862.8759765625	14956.1337890625	14289.490234375	15033.5263671875	15815.474609375	16952.08203125	16402.28125	17432.66796875	16578.314453125	15512.794921875	15816.8876953125	15083.78515625	18845.794921875	18926.890625	22956.763671875	16482.265625	17205.458984375	16099.654296875	17071.763671875	23333.197265625	18575.970703125	17070.060546875	17975.509765625	17239.87109375	15223.6630859375	20809.3046875	17040.458984375	18290.09375	16736.431640625	16393.03125	13406.03125	17143.828125	16369.220703125	18999.45703125	16788.490234375	19010.640625	16474.150390625	18152.41015625	16023.064453125	18034.68359375	15317.44921875	18639.646484375	16757.505859375	17162.3125	15155.2373046875	16689.31640625	12127.658203125	15266.205078125	18360.63671875	16273.1669921875
2400	2700	15054.5029296875	15509.369140625	8858.890625	13803.912109375	9739.494140625	12429.3876953125	15041.2783203125	11523.80078125	9672.2412109375	13069.3671875	242.62612915039062	3805.140869140625	14110.5166015625	4849.20068359375	14567.5556640625	14586.4453125	9270.0869140625	13248.248046875	9212.78125	10775.142578125	16633.52734375	10186.0556640625	13920.99609375	3836.40771484375	15600.2001953125	5154.720703125	-939.5762939453125	7467.38525390625	8886.787109375	14648.4580078125	1306.099609375	10384.7685546875	14855.29296875	15118.716796875	14697.8310546875	22048.658203125	17420.212890625	15402.9375	12979.7080078125	15390.888671875	13393.9306640625	14234.751953125	14546.3623046875	16865.634765625	16762.0	13160.330078125	12397.9912109375	14139.8486328125	15243.2646484375	15965.2744140625	14489.0263671875	14143.1328125	12847.0634765625	13693.2275390625	14263.8154296875	14546.5107421875	13521.8779296875	15412.544921875	14844.1435546875	14619.84765625	14305.470703125	13824.0439453125	13728.501953125	17110.19140625	17102.275390625	15334.490234375	15422.388671875	13595.8525390625	15382.546875	20883.130859375	16523.095703125	15688.302734375	16427.88671875	15492.0712890625	16124.4794921875	18665.580078125	15531.490234375	16882.03515625	15112.673828125	14349.234375	12490.9560546875	16052.46875	14284.521484375	16406.53125	15806.1826171875	17301.4609375	14869.2578125	14657.6650390625	14209.458984375	16083.458984375	14101.44140625	16660.19921875	15463.556640625	14911.7265625	13912.7177734375	14407.3515625	12977.294921875	13410.267578125	17712.478515625	14711.20703125
