frame_start	frame_end	parasubiculum	HATA	fimbria	hippocampal_fissure	HP_tail	presubiculum-head	presubiculum-body	subiculum-head	subiculum-body	CA1-head	CA1-body	CA3-head	CA3-body	CA4-head	CA4-body	GC-ML-DG-head	GC-ML-DG-body	molecular_layer_HP-head	molecular_layer_HP-body	Lateral-nucleus	Basal-nucleus	Central-nucleus	Medial-nucleus	Cortical-nucleus	Accessory-Basal-nucleus	Corticoamygdaloid-transitio	Anterior-amygdaloid-area-AAA	Paralaminar-nucleus
0	30	1.76269	4.15815	23.87997	9.24299	20.50153	1.10322	25.30903	0.27641	6.30374	1.03279	5.12315	3.30663	6.60533	0.85418	9.78973	1.37939	15.07838	1.02382	12.75154	5.09529	30.01637	53.17791	105.51869	26.35196	56.11591	24.94273	4.81576	0.31867
30	60	2573.99757	4078.88856	4083.8897	3577.96628	3124.37075	3015.71613	3654.18673	2627.04151	3275.52308	3207.05363	3053.14688	5129.90296	3506.63131	4015.7907	3507.99421	3783.38729	3627.38488	3242.03776	3495.38371	2103.91517	4069.88223	4481.73087	4497.28106	4404.84646	4698.72722	4906.39988	6157.63921	3000.40612
60	90	12593.87034	12329.2603	11880.89754	12382.67747	12991.84771	12999.21599	12525.2888	11115.44249	12704.18151	10477.48377	10476.78887	13735.48178	11544.90106	11796.97931	12166.96753	11358.87901	12045.06434	11647.60648	11884.66037	10220.84002	12208.76356	12216.31271	12143.03461	13189.48477	14043.55835	14404.75819	18923.24766	10715.71295
90	120	18443.98461	19491.64219	21458.98551	21613.22664	18543.74227	19589.15302	21393.91569	18445.17594	20652.53759	21685.08388	19193.75922	24993.9482	20337.84964	23363.62312	21134.90891	22854.2692	20935.20222	21297.05514	20714.33346	17238.9767	20956.67366	20243.83606	18174.50195	17002.07121	20291.41562	18850.65257	23752.37238	17813.86167
120	150	27151.08782	31480.34127	35297.80012	30540.51095	29616.70629	30075.86502	29181.69903	28529.42996	32741.95411	28509.74006	30847.56049	34836.99457	35545.66027	29916.30445	34257.92872	29760.51864	33698.94851	29628.04695	32830.53448	28716.40886	31103.43623	29797.71106	27026.60352	27901.85211	30735.6285	28789.15941	30950.03158	28009.15925
150	180	28425.11976	35925.40193	36397.6476	34880.50188	33752.61743	33091.48257	29876.46512	33150.59373	33098.24705	33955.6848	32200.89413	37643.70624	37711.04242	34689.79758	36532.83917	35401.50471	35722.32731	35061.76299	34715.02356	28063.32543	32693.06407	33388.86698	29148.47678	29859.11297	35084.81225	31968.39067	27675.59687	32749.34697
180	240	27230.9371	30921.18583	33770.73872	35118.06669	31504.66234	35555.31127	28671.03279	33090.21664	33481.726	33723.36708	33233.21348	38803.10376	34065.73787	37269.09132	35505.12899	35983.97449	34407.70156	35993.49309	33336.79884	31165.50064	34051.58189	32937.28053	27899.21962	28835.28203	33803.12155	29365.5531	31970.6514	33488.77812
240	300	26420.62251	29005.30427	32382.5682	33851.32601	28293.61436	33017.80983	29163.27504	32836.76258	32898.07042	31494.85539	30779.76047	35132.24353	31252.85225	33793.94325	33282.00913	33076.60304	32779.25019	33649.1833	31635.2472	31497.18718	31232.8764	29420.5676	26474.28928	27390.30984	31392.62204	27181.59838	28675.75251	30788.00286
300	360	25475.08665	24150.50293	29439.94812	30044.37523	27715.4503	32616.59797	26973.42275	30024.51249	31204.53649	28375.39765	29552.16454	29503.61251	28873.34818	31681.45781	31186.06399	30611.79765	30962.69993	29986.07632	30000.34535	30704.3233	31422.48619	27141.87466	25695.29275	25797.01344	28915.48355	24164.77865	27479.31769	29215.45185
360	480	22893.06198	26054.0666	27160.20368	28274.61772	24590.29681	28554.61588	25555.40351	28227.08796	28896.27042	27695.3839	28144.37524	26849.08932	24802.05652	28224.89444	28061.39028	27982.4269	28167.11019	28278.56588	27272.74156	28535.5307	29658.10585	27148.50977	24136.52778	25776.67289	29145.69666	24126.92624	26083.80374	29595.43945
480	600	19234.74078	23315.40773	23111.93818	25612.89746	21961.4307	26116.4835	21471.42028	27431.37896	24833.84169	25019.65503	24011.02147	24353.07407	23722.6052	26509.52506	24542.54921	25793.12367	24180.02345	26476.28708	23691.03536	25940.8707	25458.85885	24187.5287	24117.4872	24185.12977	26224.54975	22539.9462	23413.82282	25362.00372
600	900	18152.72118	20664.12812	21721.63397	23238.58598	20017.2199	23472.02939	20338.77984	24069.12773	23329.05015	22202.0581	21852.38602	21872.26149	21001.75687	23324.25847	22782.5821	22924.83021	22555.86267	23310.59271	21916.41132	23662.044	23262.15614	20924.06199	20291.49913	21091.95922	22396.76357	19693.41856	21053.28672	22568.95278
900	1200	16035.05025	18607.77789	19908.8307	19819.02958	17962.14803	19983.05461	18266.50688	21152.34765	21672.89587	19029.30215	20825.25365	18406.06913	19868.23205	19848.8085	20870.88179	19437.13071	20893.88166	19897.63662	20355.45522	22836.00246	21066.10326	20536.02395	20765.78429	21054.93195	20392.65984	17180.62682	19241.69509	21324.89726
1200	1500	14244.72434	17031.31232	18321.06665	17578.27248	15794.15682	17899.00944	16718.55156	18978.06381	18657.96	17026.45645	16533.81921	17008.0278	17394.04947	16918.26521	17727.70312	16862.31596	17665.4542	17396.1853	17317.92296	19187.72693	18036.35648	16832.44555	17575.21365	18178.24648	17240.96621	15710.92187	16983.45823	17107.1486
1500	1800	12692.71453	14765.51138	15146.96279	14400.54574	13823.94745	15292.26487	14122.1635	16048.28334	15608.82587	14657.59917	15051.93774	14427.0216	14925.2225	14584.53553	14777.77533	14581.56657	15029.24633	14936.70456	14742.50295	17758.63497	15552.62104	16627.48716	17126.02474	16800.3666	15065.78725	13148.7837	14844.42559	14761.47193
1800	2100	11105.59773	12674.46263	14036.49852	13948.47012	13121.78946	14332.85995	12909.59744	14906.8912	13755.04881	13969.78783	13527.10293	12566.89851	13768.3973	14513.37662	13135.94931	14380.3734	13326.75025	14340.20502	13259.48274	15743.77564	13177.19646	13981.57736	15676.05892	15394.84813	12428.68501	11477.39189	11845.02366	13981.99764
2100	2400	9791.54974	12099.76666	13041.09643	12268.85874	11438.00318	12935.56442	11415.19416	13259.3966	12371.3731	12293.37614	12216.03312	11378.59881	12423.67787	12506.42949	11675.39273	12440.84417	11884.85317	12462.55442	11877.16936	13857.46006	11637.28074	11606.6747	13094.06304	12616.05418	11768.75783	10910.15906	11264.57013	11675.27542
2400	2700	7341.25092	11803.9107	11156.1199	10106.96611	10238.8974	9304.55335	10159.33839	11584.69146	10877.70305	10762.05881	11503.52361	10759.72471	11947.4412	10611.09018	10872.51314	10827.70077	10857.40065	10437.0765	10982.48739	13015.53546	11223.50142	12294.57539	13609.92068	13748.83219	10448.16146	10003.60278	9207.80485	11000.00567
2700	3000	7958.71324	10108.0995	11213.98823	9901.72398	8978.94951	9778.73123	10553.41426	11058.14062	11206.09647	9851.60535	11357.60982	9786.23195	12553.3418	9723.89536	11002.03154	9840.86481	11073.82689	9957.15549	11373.4502	10726.11281	8569.95929	10464.22493	10470.03852	10858.99074	9437.38179	9295.84311	8550.4916	9271.46104
3000	3300	9362.36443	9814.37397	10212.76802	10459.54404	8850.30584	11488.09624	9518.90238	11223.89454	10573.23695	9894.87688	10141.27031	9979.5586	10606.68592	10187.94961	10012.69589	10216.12996	10098.38227	10268.78501	10134.12367	10134.26225	9194.31297	11075.50692	11214.77724	11374.72434	9389.65602	8643.05537	8255.22898	9531.50594
3300	3600	7123.99016	10095.78368	8454.1655	7231.10529	8974.3061	7250.50623	7834.57472	8876.67069	8793.44488	7657.92299	10180.27016	8633.93765	9416.11928	6502.80216	8519.81508	6861.55708	8497.58906	7382.72007	8750.28443	11363.90493	8249.17345	10312.25019	10083.74626	9710.85506	8815.50395	7840.11123	9121.88728	7211.19302
3600	3900	5406.33101	9255.68077	8785.5029	6990.71966	7972.98152	6634.58521	7842.41201	8448.20644	8209.14869	7576.72135	8948.78786	8145.48769	9241.29458	7107.03699	8240.84696	7110.52048	8262.02877	7173.92838	8379.52333	9187.9296	8330.11539	10044.42427	9736.84353	10674.73598	9700.12774	8719.08324	7956.8571	6636.04187
3900	4200	6779.58536	9403.94727	9381.58832	7043.36142	6889.28345	7892.69818	7518.96296	8203.06652	8059.71024	7942.73879	8103.15975	6888.43102	8936.27994	6320.52593	8258.25491	7054.14415	8333.5591	7326.82163	8184.24173	8884.21045	7759.09404	7294.8454	8632.39562	9354.11082	8348.85585	8125.11296	7838.82676	9001.21002
4200	4500	4842.85595	7572.48474	8844.31291	8220.80691	6761.82883	7817.58295	8258.63916	10111.46231	8382.0598	6701.2371	8596.47507	8780.09693	8900.36367	8072.36258	8221.10947	7660.39874	8163.37479	7696.71246	8311.75319	7725.26813	6323.8603	7926.40723	7831.91374	7790.7449	6871.14374	6889.3252	5634.3529	6020.25729
4500	4800	5226.959	9687.3419	6659.7378	5113.02335	6364.2286	5754.82017	6141.94608	7245.71858	6575.82309	6615.8096	6212.16284	5773.98758	6295.75777	5393.87675	5765.29392	5692.26046	6049.53372	5736.84393	6015.95161	8581.58861	5527.55673	8434.71337	6523.4075	6854.35291	6211.15315	6362.23767	7454.66607	5018.17236
4800	5100	4542.699	6696.83154	6162.08367	7031.05961	7378.93596	7472.74992	6390.57989	8557.95018	6337.07763	5784.50227	6618.52533	6414.10487	6578.05892	5328.38234	5922.12576	5867.11411	5985.15746	6323.97188	6156.46279	6994.84639	5061.71732	7359.91275	7931.24702	8963.67311	7149.08028	6707.58681	5517.37846	4371.59981
5100	5400	6464.74451	5963.78025	6516.56905	5744.60932	5111.95912	6164.99859	5131.10723	6275.20388	6037.67399	6130.95745	6473.36861	5465.16092	6633.87199	4548.53742	5927.14008	5312.80535	5961.92976	5622.57857	5881.08294	6616.8078	6535.19958	4879.10104	5872.39193	5202.58584	6767.19539	6605.26009	6322.82448	6412.33683
