frame_start	frame_end	parasubiculum	HATA	fimbria	hippocampal_fissure	HP_tail	presubiculum-head	presubiculum-body	subiculum-head	subiculum-body	CA1-head	CA1-body	CA3-head	CA3-body	CA4-head	CA4-body	GC-ML-DG-head	GC-ML-DG-body	molecular_layer_HP-head	molecular_layer_HP-body	Lateral-nucleus	Basal-nucleus	Central-nucleus	Medial-nucleus	Cortical-nucleus	Accessory-Basal-nucleus	Corticoamygdaloid-transitio	Anterior-amygdaloid-area-AAA	Paralaminar-nucleus
0	30	361.13702	1048.10539	732.21927	438.86356	479.62477	394.69969	879.39407	553.06628	725.53214	453.7883	526.11413	502.87949	565.76444	333.8857	656.50968	358.35994	670.16715	373.59949	708.18618	290.3985	490.43067	414.26557	537.97265	560.67639	673.65089	1016.86634	884.02251	604.33636
30	60	6180.57165	7112.68048	6970.64027	6183.21644	6538.2812	5760.66403	7262.61569	5480.30945	6005.06032	5553.00413	5530.25619	7124.04185	6480.60597	6223.23372	6231.16253	5999.56555	6257.09011	5462.58665	6265.54745	4540.69601	5819.20178	6343.17255	6645.62327	7195.38576	6926.30112	7564.68187	7476.75933	6224.15888
60	90	12279.71014	12925.67132	17202.76616	13687.59041	15113.30395	13175.7472	13751.55067	13594.30631	13815.4005	13582.94058	13267.3057	16252.81127	15533.73776	15463.9524	14945.48458	14690.86944	14981.18615	14020.84753	14455.20614	11038.78846	13458.15231	14124.06859	13590.54412	13677.648	14308.17947	12866.22142	13697.40505	12800.01517
90	120	20844.16602	24366.75942	24421.97808	21582.11793	23159.05815	21013.5017	20929.05995	22219.54724	23013.78042	21588.4244	22115.81673	22211.41267	24022.05136	21012.17656	23834.32489	21277.15598	23845.46741	21859.2249	23276.52242	16766.79709	19757.98106	24344.6962	23438.8592	25252.70855	24718.81078	22517.41302	19090.58296	21272.81119
120	150	23933.426	25361.72609	30918.8099	27738.63287	27510.35293	27607.53421	26003.81905	28302.31149	28313.5523	26859.27562	27502.83718	30178.97757	29629.28313	27848.14536	29935.04836	27703.94946	29500.14045	28311.25591	28750.90816	25139.21615	27374.85706	31053.20243	26094.78658	27731.35205	30943.46699	25276.66821	25289.51008	24946.75006
150	180	26427.49128	25282.13093	28940.07231	28848.75754	27878.70042	28994.13042	25623.69217	29784.48063	28792.35253	27500.74622	28343.04578	31070.02449	28768.49629	29873.64201	29012.91004	29289.19289	28887.26341	29193.88193	28258.36979	25459.84708	26255.40467	29432.107	22275.55664	25554.89377	28043.79634	23328.69298	23722.77401	25290.36467
180	240	23444.12289	24474.27757	30751.57383	28010.4419	29002.20398	25950.71438	24761.8349	28822.09125	29194.82457	28011.09163	28676.5779	31150.20288	30038.6591	29994.83171	30351.42782	29090.89461	30104.74798	29138.7434	28959.4671	26600.30539	27497.2389	30681.00033	24176.43555	26645.30675	28868.0929	23313.88235	27994.0211	26226.32141
240	300	21903.6818	22299.52743	28240.77469	26657.42421	27018.04483	25998.40955	24388.0225	28531.38514	28100.85852	26344.49556	26577.80536	27890.46681	28061.14342	26499.97304	28624.84583	26178.30282	28489.1086	27399.00338	27539.57151	26331.87005	28022.75882	28368.47577	23303.63388	24892.83936	27721.88945	21840.87966	27805.36991	26547.66071
300	360	21832.19649	24143.28218	26869.97346	25608.23331	26625.64382	26095.15381	23614.99789	26456.18361	27340.4101	25226.92575	26382.30596	28641.12277	26074.52762	27185.20802	27464.66418	26284.59032	27442.48858	27046.35766	26536.793	24327.36136	27447.14012	26070.73114	22597.08239	24158.7959	27255.734	23154.62951	25624.90796	26401.11829
360	480	21066.02354	22211.21114	26331.9566	25561.53157	24972.30806	24506.88112	23317.68826	26343.29658	26882.80086	24922.53844	24992.20089	26267.4427	24865.8802	26656.35651	26806.03072	25568.34701	26627.0143	26319.59364	25798.05741	24581.40828	26796.44541	25794.52562	22425.69531	23851.33442	25976.51278	21083.73786	24975.96662	25489.00671
480	600	20875.52539	21782.10667	24958.60487	24750.65294	24330.84526	24287.90277	22638.38806	26473.08585	25496.07889	24443.33759	22985.13951	24835.27642	22952.70633	25246.78448	24648.62954	24569.50403	24577.77634	25734.9397	23700.71498	25334.79073	25700.77309	24167.58419	22427.60618	23694.34559	26077.64429	22168.16277	27105.37957	24640.78164
600	900	20484.38067	20642.89594	24615.27519	23610.63836	22445.05098	23383.59849	21578.66206	25045.68262	25476.80544	23165.74027	23575.10285	24061.94977	23144.47775	24159.41863	25043.40436	23349.2523	24891.06449	24389.77808	24039.87943	25012.42452	25480.10866	24292.93097	22469.22781	23413.35135	24875.49032	21070.21623	25605.75659	23652.61806
900	1200	18782.95568	20025.47963	22404.6538	21938.68229	21056.4734	22217.85041	20802.69843	23638.87649	23134.34949	21703.06861	21139.58293	21549.63114	20875.78547	22070.2845	22195.50064	21670.1509	22219.5433	22705.86334	21712.6068	24212.02872	23211.73528	22515.66974	21650.52681	21443.56445	22279.14038	19354.48526	23849.4511	22384.44778
1200	1500	17984.24744	18004.30599	21177.45946	20550.25373	19147.01373	20294.56668	19211.3486	21991.47343	21529.17813	19657.61055	19360.51492	19735.98458	19899.18654	20520.98453	20680.39279	20085.91574	20616.12345	20623.64948	20182.78132	21677.95641	20203.82452	20063.13567	19797.28835	19755.65842	19371.19636	17560.23318	20998.58714	19453.40977
1500	1800	15215.97959	16206.77364	19301.65706	17721.57688	17532.22272	17940.30744	17534.67334	19650.53753	19207.98335	17357.98492	18167.7431	16931.44459	18605.58783	17639.79221	18735.93564	17522.40014	18783.98177	18133.76131	18494.13004	20219.83399	18306.62815	19186.10218	18111.85795	17553.01777	17231.2613	15356.25811	19667.3309	17123.37604
1800	2100	13444.95547	15763.45581	18058.1062	15719.87106	15699.20521	15778.17571	15542.55877	17448.33635	17297.4634	15624.03279	16174.78445	15296.21124	17103.31615	15535.47351	16981.30617	15620.6094	17035.10503	16249.76098	16704.80461	18826.56345	16166.10038	17430.33075	17295.78196	17482.47236	15888.79155	14457.94231	17834.89444	15368.92485
2100	2400	12985.02904	13378.68342	16508.90441	14135.78633	14272.02554	14329.03185	14040.23098	15445.6646	14996.44126	14013.93681	14833.8749	14584.2269	16265.74313	13405.96636	15311.72147	13711.4611	15269.30226	14362.37906	15039.60509	16875.52111	14769.86789	16880.49657	17283.73295	16723.41748	14717.31655	13458.21558	14555.80165	14063.33045
2400	2700	13133.31872	14260.3156	15166.92474	12934.5984	13180.23394	13968.48457	13085.11361	14469.39425	14416.88586	13325.02421	14449.83591	12042.82315	14976.79244	11578.07034	14190.97419	12259.91061	14307.94967	13135.76185	14227.10818	15431.13475	13808.56128	14598.27145	14792.05442	14796.35248	13679.66048	13682.94988	13663.53528	13527.11103
2700	3000	9777.06241	13199.64632	14208.34966	11477.62598	12030.10398	11161.25882	12374.49532	12733.40126	13197.4782	11938.73722	13637.2328	12677.33721	14252.18947	11348.77352	13346.1113	11421.55312	13377.74237	11810.95135	13319.5106	14509.9656	11823.73554	15084.64652	15594.28702	15544.23508	13411.02993	12394.7163	12985.9469	10631.99517
3000	3300	9612.61146	11708.08627	13003.35584	10509.57771	11767.20282	10168.06794	11199.18483	11376.15819	12097.89208	10782.59044	12001.8795	12098.25174	12753.05092	10969.59193	11917.44916	10949.47917	11905.3148	10721.39308	11895.87557	12742.32868	10645.09982	13194.39485	13411.92241	13010.18953	11280.52445	10576.83973	12779.9056	9679.64359
3300	3600	8598.30717	11352.93464	12658.89936	10356.49606	10579.10043	9696.89373	11186.92285	11239.36961	11540.87049	9933.60092	12448.5044	10687.1609	13182.18746	9571.6017	12048.22291	9797.26124	12027.82257	9977.75129	12138.8463	11011.01486	9395.9229	13978.64824	13671.62109	13330.59947	10524.05161	10202.11872	10240.83036	8766.15055
3600	3900	7826.72919	10611.80397	10645.76706	8772.46082	9467.05487	8837.14553	9421.79233	10164.28853	10615.74251	9421.35928	10945.46975	9002.6675	11579.58656	8360.98449	9866.7364	8756.55853	10090.5667	9033.96367	10298.12935	10264.06133	9534.5066	12829.06408	12470.89462	12376.2053	10700.59879	9976.82215	10254.65642	9118.31115
3900	4200	7928.54955	11779.20593	11813.74423	8105.68465	9678.38912	7764.23374	8998.91584	7680.15416	9273.0752	8462.06736	10915.54756	9288.46631	12368.71201	7670.28451	10166.01802	8261.02527	10183.59678	7775.33612	10289.16666	9837.95637	8257.67571	9603.635	10479.33301	9947.16786	9604.28639	10201.41854	8340.29689	7521.49622
4200	4500	6378.63443	10152.55006	9310.91723	7391.14411	9124.16722	6714.44173	7533.00773	7743.69408	8752.3141	8253.95953	9324.22616	8893.97104	9669.32856	7776.91473	8931.54417	8029.9658	8883.37343	7766.88889	8854.72247	8592.13605	7881.33643	10207.87127	9674.4541	10012.14263	9308.88174	9113.13656	8523.54408	6767.65658
4500	4800	6154.25945	11020.30704	9676.36348	7009.5108	8201.05564	7113.51318	7580.67726	8300.75087	8167.43253	7586.57906	8848.35306	7803.67786	10435.57945	6358.6555	9095.43259	6775.18477	8952.73524	7215.67012	8978.83979	8439.32383	7010.24883	8483.1263	9911.79031	10977.22833	8823.53124	9208.61991	8004.52643	6767.39288
4800	5100	6135.47816	11439.70504	9787.96021	6876.37705	7684.55791	5881.78834	6992.90858	6774.26552	7949.48249	7369.59703	8413.46881	8713.29417	9648.23717	6999.76073	8703.61419	7159.0046	8574.87985	6686.50241	8308.72755	7208.38501	6798.72816	7907.416	8422.05757	9094.7036	8474.87202	9391.04705	7332.17815	6412.22992
5100	5400	5516.6977	8904.43876	7803.30869	6693.01349	7506.72897	6742.90918	6860.90741	6934.69348	6870.79694	6943.23622	7862.06123	8376.7378	8515.24436	6719.01816	7248.78482	6666.8699	7339.32634	7065.74872	7430.3338	7170.80863	5522.21864	7449.35405	7379.08754	7441.97531	7607.3543	7772.38519	7580.28048	4934.89022
