frame_start	frame_end	parasubiculum	HATA	fimbria	hippocampal_fissure	HP_tail	presubiculum-head	presubiculum-body	subiculum-head	subiculum-body	CA1-head	CA1-body	CA3-head	CA3-body	CA4-head	CA4-body	GC-ML-DG-head	GC-ML-DG-body	molecular_layer_HP-head	molecular_layer_HP-body	Lateral-nucleus	Basal-nucleus	Central-nucleus	Medial-nucleus	Cortical-nucleus	Accessory-Basal-nucleus	Corticoamygdaloid-transitio	Anterior-amygdaloid-area-AAA	Paralaminar-nucleus
0	30	21.00344	7.13718	13.71088	55.57908	21.6603	21.2504	16.84405	31.88197	11.85868	58.90525	7.42548	12.8359	6.17931	32.80615	8.34718	41.55983	8.80977	56.05477	9.93265	31.02346	35.96796	3.91337	3.79782	2.74661	11.9395	16.19716	9.61884	44.10631
30	60	3175.76134	3092.35445	3405.07075	3736.08644	3155.41212	3522.28387	4275.56563	2791.39334	3152.40415	2608.01356	2780.02684	4031.24468	3112.85803	3432.45258	3266.81488	3253.02689	3250.34221	2897.40835	3316.58705	2343.60755	3748.76803	2947.11281	2838.17852	3001.94404	4008.38809	4384.50537	6150.75445	2731.17165
60	90	12313.74397	10798.18058	13521.81819	13530.55074	11636.09809	12988.81639	12820.18543	11239.90178	11399.06693	11381.21433	11239.31863	15098.54177	13815.57208	14147.28076	12854.95904	13563.60224	12618.02051	12652.42426	12652.02435	10312.44959	12843.49433	11480.06509	9893.36795	10250.16708	12625.51611	11824.65096	21910.78729	10648.50234
90	120	21971.88384	20877.14275	26788.60676	25297.87754	24213.87616	23768.76968	25620.48707	21766.1585	24583.41793	21663.51348	24675.28685	29084.71728	27145.78945	25747.4021	25980.31032	24662.92565	25873.21926	23543.14299	25984.10171	21308.15899	23516.03046	23526.91527	20064.1225	21360.60576	23091.50792	21194.1443	32114.71037	20563.68601
120	150	28994.89646	28167.13941	35967.89171	33181.10394	33510.68429	32437.89496	32086.43971	29790.99944	32429.20437	30983.86474	34047.33781	36448.19216	36091.23463	35626.83958	35207.22369	34078.29716	35081.63963	32819.35423	34725.48376	29749.16985	32684.98077	30276.15546	24479.08898	25078.27379	30404.01237	28948.70957	37446.75285	31902.9556
150	180	27773.09937	31835.71418	39788.05602	37663.01951	34071.06513	34014.26386	35421.89643	33904.06326	38523.71388	34794.44903	37159.12624	38698.51171	37390.13745	38421.99575	39569.15814	37487.1489	39637.12103	36707.63817	38226.19078	33741.61672	35773.78453	32644.75185	28628.27507	28224.84308	34542.75276	29284.25777	35516.74316	33405.75238
180	240	30856.90334	31124.80839	39340.66939	37280.60113	35376.08962	36147.28866	34154.22359	34865.15391	38100.96474	35779.46948	36156.92804	37718.80319	36728.62409	38162.23771	39338.8388	37120.89303	39201.82669	37174.7124	37634.90883	35218.01191	37541.13797	37092.42304	31482.68761	31532.89751	36239.8437	29567.30534	34710.54454	36347.58406
240	300	30555.37621	29251.49862	36190.83132	37103.28703	32095.36672	37743.40916	31813.88547	35416.33505	35975.8428	34371.38775	34489.53888	35844.28284	34037.31686	38722.56724	36659.30457	37135.63675	36470.89719	36951.65853	35117.94288	35349.65755	34742.74918	33006.06678	28691.44195	29827.06725	32825.62079	28527.48626	32598.50754	33513.61163
300	360	28348.47817	29358.00191	35001.01842	35458.80937	30434.74298	35307.3467	31703.62441	33064.31339	35451.69339	32445.53119	32337.94093	33669.00762	32091.51969	36469.83719	35298.6336	34839.7055	35352.03492	34693.3064	33909.93969	33897.84856	34928.27435	32117.55631	28802.26649	29230.46307	32872.31567	28143.00759	30752.35956	34576.66243
360	480	26179.31275	27033.97444	30778.63114	31756.53521	27695.14978	32360.90625	28713.30274	32110.31991	31943.2766	30134.51537	30643.13941	30347.70892	29079.7418	32815.23494	31608.11503	31600.38937	31555.75212	31886.33612	30800.51557	32122.67223	31907.5942	29960.53906	27757.98134	29412.27446	31461.13577	27370.78628	29324.77002	31107.49707
480	600	21114.34471	24743.13177	27402.48868	28052.2164	23627.56804	27532.18804	25759.30856	28392.72316	28532.87836	26394.21535	25767.38728	26062.94436	25264.08566	27959.46223	28114.06698	27095.58716	27945.51891	27918.94319	27035.10567	29194.07966	29515.94118	27222.89131	24590.47146	24929.41624	28112.08869	24307.89618	26954.93362	28628.71273
600	900	19893.36801	20777.87696	23101.62701	23998.70788	19989.04056	24590.35579	21238.48173	24539.37433	23879.46289	23365.6958	22775.76692	22096.00178	21538.10323	24827.50477	23140.6597	24120.63383	23246.46145	24367.61999	22673.89271	26357.28135	25025.67368	22770.82245	21466.78136	22351.54426	23220.37666	20057.14622	23193.76782	24292.06905
900	1200	15364.42602	17434.14762	19520.91324	19602.56868	17116.97791	19661.79928	17443.43348	21112.66348	19835.72654	18902.21844	19195.42286	18555.0147	18622.67574	19656.45996	19476.60578	19228.29958	19412.23734	19857.96522	19003.72408	22636.76696	20595.11942	20889.33623	19761.23557	20298.0704	19864.56104	16984.90191	19519.22238	19462.62096
1200	1500	13735.52609	16041.94208	17306.84167	16612.69872	15598.85326	17258.13067	15729.88176	17959.53039	17656.74555	16001.67223	17191.31803	16232.74303	16390.10438	16919.89312	16972.80965	16511.46592	17132.01042	16801.7925	16811.30211	19368.07852	17460.47212	17431.84738	16907.89844	17733.28853	17097.95269	15436.04942	16823.20359	16662.06149
1500	1800	12196.44875	14231.41786	15327.36989	14783.05644	13796.54552	14936.71435	13888.60093	16288.7685	16154.68995	14759.85398	15221.60102	14378.58684	14966.12743	14752.70094	15395.21948	14775.60625	15380.45049	15191.41499	15076.98352	16972.96242	15593.99088	17111.0518	17256.4247	17198.12884	15608.21266	13276.85999	14007.61359	14791.30459
1800	2100	10962.17495	12766.34986	13610.92869	13043.55673	12090.9225	13066.33321	12497.01227	14884.53497	14210.23102	12622.73901	14091.13806	12221.78441	13519.41519	13504.72109	13299.19601	13416.77442	13417.07302	13092.41535	13350.08573	15271.35223	12933.9156	13796.05752	14200.26036	14703.86539	12966.17263	12007.65717	13490.15696	12481.43625
2100	2400	9427.73424	11773.68399	12753.56214	11502.62077	10939.21219	11683.34264	10692.77888	13195.00502	12856.24625	11516.46649	13323.89019	11591.88963	13432.69899	11475.47586	12827.93769	11392.87189	12784.15636	11792.15601	12535.82284	14011.50821	11282.62371	12382.92901	12926.50537	13376.10995	11578.0156	10685.50551	10730.01709	11123.96738
2400	2700	8442.47051	10650.38413	11853.48074	10310.16638	10455.48483	10026.17509	10394.28176	11854.16247	11747.85323	10480.62043	12178.15945	11163.8789	11925.37363	10700.65552	11438.50541	10683.66588	11425.12635	10652.27587	11351.46977	11843.42076	10044.51042	12198.39098	12420.13428	11920.55451	10489.20878	9421.40854	10294.65203	9496.0953
2700	3000	8631.51051	10145.27915	9954.2468	9819.64595	9626.74991	10517.67245	9918.77033	10790.40122	10044.82136	9635.58453	10611.98806	8766.01176	10112.13376	9016.33355	9381.24223	9272.65103	9621.19542	9671.74445	9848.93427	11630.97284	9514.36455	10625.5498	11457.65636	11019.2791	9286.2869	8599.21273	10299.0502	9187.10412
3000	3300	7157.16726	10539.18369	10097.73318	8851.43769	9525.66921	8933.36687	8671.49563	10073.31501	9882.56972	8968.39585	10834.23453	9731.55557	10335.69437	8955.49297	10017.85646	9098.5856	9941.15596	9004.84905	9763.19464	11401.93706	8441.80806	10306.58966	11358.6837	10867.03846	9370.32421	8739.78129	8888.62097	8281.45736
3300	3600	7331.36017	9815.42754	9257.16804	9020.90512	8081.46615	9239.18039	8979.0881	9896.68882	9917.24973	8693.60387	10138.62772	8970.28595	9527.15097	9142.58568	8939.2354	9025.84337	9143.26002	8876.55905	9330.15283	9776.9123	8007.25115	10465.91728	11081.88194	11269.40494	8906.60701	8240.07093	8821.96109	7679.72503
3600	3900	7961.26369	7918.48834	8283.73617	8393.5678	7625.97712	9554.46382	8066.36631	9610.35948	8833.71703	7854.03758	8878.33617	8597.42693	8377.50568	7830.35475	8005.77358	8057.79459	8195.7029	8260.87866	8293.95191	9486.98939	7374.84943	8526.0354	9216.808	9127.17999	7713.3935	6976.86199	8900.2565	7867.66197
3900	4200	7208.06516	7748.19907	7825.23794	7948.58222	8203.62258	8262.13384	7086.28258	9465.71451	8846.07336	7736.16168	9834.98085	7170.30777	8431.68837	7333.84656	8123.74702	7471.73306	8133.96066	7864.47388	8307.56417	9484.46537	7039.83912	8216.38033	10297.61203	9324.03364	7263.12943	7224.40115	8195.83076	7587.05144
4200	4500	7058.76919	7900.56696	7963.86076	7073.13384	7271.58111	7485.77209	6678.39684	8739.88925	7804.43058	7533.64374	9357.24175	6930.15804	9233.23326	6697.04519	7599.79394	7033.48801	7706.11741	7322.56928	7988.33652	8519.62136	7006.29196	7850.14465	8530.37516	8068.94722	7627.61152	7247.9771	6413.81554	7275.13671
4500	4800	5570.43652	7353.4372	7392.96558	6281.42809	6650.62865	6424.65977	6596.09335	7938.08998	7673.95947	7091.18494	7942.60957	6722.63666	8158.96333	5887.40985	7470.1792	6232.86319	7482.08924	6609.18266	7470.95418	8591.93303	6584.66746	7286.51112	7991.1805	7474.61853	6499.373	6417.29086	7084.90782	7141.98308
4800	5100	6661.82802	7419.00263	7603.79647	7897.60588	7022.69754	7598.23111	6577.8367	7795.66785	7401.13325	6906.46564	7786.04617	7085.33693	8218.24082	7593.78069	6980.56348	7570.8687	7193.17126	7166.76027	7340.25452	8388.38233	6246.70252	6979.33595	6728.93297	7855.7607	6367.12784	6273.68756	6014.69967	6479.58956
5100	5400	5083.76907	6835.54682	7514.38723	5658.13603	7165.35469	5492.62209	6366.3752	6860.33656	8180.83088	5722.96767	7805.79691	6075.09445	7072.67792	5898.26866	7646.35722	5975.75006	7720.16401	5848.21793	7367.88538	6677.75813	4993.75976	6984.68508	8605.47895	7259.39514	5606.51067	5535.49959	5161.1673	4864.45124
