frame_start	frame_end	Left-Cerebral-White-Matter	Left-Cerebellum-White-Matter	Left-Cerebellum-Cortex	Left-Thalamus	Left-Caudate	Left-Putamen	Left-Pallidum	Brain-Stem	Left-Hippocampus	Left-Amygdala	CSF	Left-Accumbens-area	Left-VentralDC	Left-choroid-plexus	Right-Cerebral-White-Matter	Right-Cerebellum-White-Matter	Right-Cerebellum-Cortex	Right-Thalamus	Right-Caudate	Right-Putamen	Right-Pallidum	Right-Hippocampus	Right-Amygdala	Right-Accumbens-area	Right-VentralDC	Right-choroid-plexus	AirCavity	Skull	Vermis	Pons	CSF-ExtraCerebral	Head-ExtraCerebral	ctx-lh-bankssts	ctx-lh-caudalanteriorcingulate	ctx-lh-caudalmiddlefrontal	ctx-lh-cuneus	ctx-lh-entorhinal	ctx-lh-fusiform	ctx-lh-inferiorparietal	ctx-lh-inferiortemporal	ctx-lh-isthmuscingulate	ctx-lh-lateraloccipital	ctx-lh-lateralorbitofrontal	ctx-lh-lingual	ctx-lh-medialorbitofrontal	ctx-lh-middletemporal	ctx-lh-parahippocampal	ctx-lh-paracentral	ctx-lh-parsopercularis	ctx-lh-parsorbitalis	ctx-lh-parstriangularis	ctx-lh-pericalcarine	ctx-lh-postcentral	ctx-lh-posteriorcingulate	ctx-lh-precentral	ctx-lh-precuneus	ctx-lh-rostralanteriorcingulate	ctx-lh-rostralmiddlefrontal	ctx-lh-superiorfrontal	ctx-lh-superiorparietal	ctx-lh-superiortemporal	ctx-lh-supramarginal	ctx-lh-frontalpole	ctx-lh-temporalpole	ctx-lh-transversetemporal	ctx-lh-insula	ctx-rh-bankssts	ctx-rh-caudalanteriorcingulate	ctx-rh-caudalmiddlefrontal	ctx-rh-cuneus	ctx-rh-entorhinal	ctx-rh-fusiform	ctx-rh-inferiorparietal	ctx-rh-inferiortemporal	ctx-rh-isthmuscingulate	ctx-rh-lateraloccipital	ctx-rh-lateralorbitofrontal	ctx-rh-lingual	ctx-rh-medialorbitofrontal	ctx-rh-middletemporal	ctx-rh-parahippocampal	ctx-rh-paracentral	ctx-rh-parsopercularis	ctx-rh-parsorbitalis	ctx-rh-parstriangularis	ctx-rh-pericalcarine	ctx-rh-postcentral	ctx-rh-posteriorcingulate	ctx-rh-precentral	ctx-rh-precuneus	ctx-rh-rostralanteriorcingulate	ctx-rh-rostralmiddlefrontal	ctx-rh-superiorfrontal	ctx-rh-superiorparietal	ctx-rh-superiortemporal	ctx-rh-supramarginal	ctx-rh-frontalpole	ctx-rh-temporalpole	ctx-rh-transversetemporal	ctx-rh-insula
0	30	4.976134300231934	5.285172939300537	4.151968002319336	3.8276171684265137	6.495903491973877	2.116337537765503	0.96014004945755	4.164498805999756	7.79025936126709	1.9515138864517212	5.621102809906006	3.3972396850585938	8.995683670043945	0.7740980982780457	7.118373394012451	16.452049255371094	14.487098693847656	7.696415901184082	7.220980644226074	2.8505918979644775	8.272640228271484	4.016915798187256	2.6404924392700195	1.195709466934204	2.2795047760009766	1.5555403232574463	5.973680019378662	7.770638942718506	22.114566802978516	2.0983917713165283	6.06502103805542	7.3604736328125	0.3247532844543457	10.767931938171387	6.178226470947266	1.5353037118911743	0.08514488488435745	1.8370885848999023	5.589395999908447	1.8273521661758423	2.032426118850708	10.043072700500488	2.013458013534546	2.8123414516448975	4.640021324157715	1.430944561958313	7.372373104095459	0.5994865298271179	2.725767135620117	4.097929000854492	3.8991854190826416	1.8596560955047607	3.0673882961273193	1.598803997039795	2.3681886196136475	1.3262808322906494	6.810333251953125	2.274454116821289	5.1196513175964355	1.1909825801849365	1.548457145690918	14.409771919250488	3.754485607147217	2.1210882663726807	0.1007995679974556	1.1334831714630127	2.230961322784424	13.112741470336914	10.355857849121094	1.7102909088134766	4.212676525115967	11.236604690551758	9.971339225769043	21.295740127563477	1.650626301765442	5.7162556648254395	3.47841215133667	5.262866497039795	4.222502708435059	12.697576522827148	27.836381912231445	2.268442392349243	5.3920207023620605	15.766942977905273	13.696244239807129	0.6787417531013489	8.644745826721191	4.653045177459717	4.250635147094727	1.6975529193878174	3.418517827987671	8.611594200134277	8.206345558166504	2.106574535369873	14.193880081176758	18.68246841430664	2.0204238891601562	9.154074668884277	4.948298931121826	4.465752124786377
30	60	902.083984375	789.5794677734375	1045.6351318359375	1253.7984619140625	904.03173828125	1503.86181640625	1121.2340087890625	920.81005859375	1117.5323486328125	1340.7109375	572.8657836914062	1039.2225341796875	990.4894409179688	871.0941162109375	902.9464111328125	696.7808837890625	989.304443359375	1058.37255859375	824.90234375	1578.8704833984375	980.899169921875	1067.2330322265625	1109.9854736328125	1221.8089599609375	1082.9208984375	745.9930419921875	205.60934448242188	302.3714294433594	902.0451049804688	923.4327392578125	1043.8817138671875	261.6035461425781	1724.1871337890625	1344.2353515625	1270.4876708984375	1844.229736328125	1009.3510131835938	1170.3138427734375	1041.27783203125	959.5137329101562	1341.242919921875	1116.0447998046875	1223.6724853515625	1611.5888671875	1218.350341796875	997.2357177734375	1167.5299072265625	1077.916748046875	1342.284423828125	1089.7152099609375	1173.9305419921875	1229.5101318359375	1168.9921875	1393.1192626953125	1207.02587890625	1210.8468017578125	1599.6591796875	1096.084228515625	1145.824462890625	1178.89990234375	1360.19970703125	1212.5753173828125	1296.5406494140625	1046.7139892578125	2710.82373046875	1656.41845703125	1521.0233154296875	1778.27099609375	1201.4559326171875	1543.095947265625	1433.57275390625	1020.88671875	1108.6072998046875	867.3919067382812	1326.2440185546875	1128.4267578125	1206.43115234375	1567.7657470703125	1470.89599609375	1042.539306640625	1209.7962646484375	1294.621337890625	1519.465087890625	1058.6925048828125	1232.296875	1492.344482421875	1253.824951171875	1471.9906005859375	1227.1317138671875	1427.7198486328125	1948.7313232421875	1142.663818359375	1197.269775390625	1105.222900390625	1455.674560546875	1301.0084228515625	1107.8564453125	1047.0433349609375	2350.236328125	1616.5084228515625
60	90	7315.51611328125	7849.244140625	10147.4033203125	9755.919921875	7379.9599609375	11693.8876953125	8385.6953125	7908.68701171875	9178.3759765625	7281.7158203125	3508.7626953125	10979.0390625	7739.39892578125	6375.31982421875	7020.2724609375	7555.99560546875	9789.9755859375	10827.83984375	6871.7314453125	11212.091796875	7743.30126953125	9484.994140625	8095.03564453125	9655.751953125	8169.28076171875	7460.6826171875	1960.4141845703125	2350.962158203125	9527.9306640625	8109.7841796875	7947.021484375	2486.657470703125	12560.6484375	10250.791015625	10255.921875	12850.6865234375	7237.1689453125	9983.62109375	9708.40625	9747.591796875	10746.02734375	9878.109375	10248.396484375	11835.826171875	10084.9189453125	9643.875	8992.896484375	9086.126953125	10489.8818359375	11235.263671875	10700.0732421875	12754.755859375	9820.6201171875	11113.8974609375	10090.3994140625	11481.5595703125	9727.4892578125	10279.5859375	9452.166015625	9957.779296875	10594.8212890625	10309.8505859375	10313.7265625	8118.4765625	16368.22265625	11164.1474609375	10724.626953125	11569.6552734375	10220.7119140625	12343.3134765625	9085.615234375	8721.9208984375	9955.1923828125	8676.779296875	11557.234375	10146.2685546875	9363.66796875	11558.669921875	10479.9951171875	9929.8193359375	9294.70703125	10945.791015625	10624.6943359375	10554.4482421875	10656.96484375	13124.912109375	9443.3115234375	12442.271484375	10369.6044921875	11697.3896484375	11204.4375	10101.8515625	10274.12890625	9000.376953125	10541.896484375	10087.3251953125	9385.0341796875	7507.60791015625	14603.921875	9817.3154296875
90	120	15661.11328125	16447.154296875	21141.931640625	19664.23046875	16015.8544921875	24508.216796875	17245.630859375	14567.6845703125	18537.92578125	16743.841796875	7130.41748046875	22018.150390625	15366.166015625	13147.275390625	14901.583984375	15701.494140625	19954.109375	21087.71875	15055.2412109375	22969.53125	15471.15234375	17670.759765625	15722.7021484375	19185.962890625	15550.83984375	13034.72265625	3851.82763671875	4375.4794921875	21923.53515625	16803.837890625	15353.8134765625	4638.39453125	25918.005859375	20245.87890625	21557.796875	27428.2109375	15247.865234375	21005.45703125	20694.681640625	20924.828125	23000.494140625	22049.423828125	20243.111328125	24789.068359375	19616.484375	20367.994140625	17469.279296875	20470.298828125	21724.38671875	22130.80859375	21442.9921875	27553.947265625	20790.85546875	23732.80859375	21376.744140625	23950.1953125	17705.65234375	22168.40625	19183.2734375	20542.673828125	20784.685546875	21523.421875	20914.02734375	16688.54296875	31908.705078125	20653.46875	21042.078125	24062.98046875	21282.388671875	26056.361328125	16704.341796875	19136.755859375	20752.416015625	18641.93359375	23479.185546875	22873.787109375	19493.109375	23953.271484375	20988.9921875	19460.7265625	16521.41796875	21323.291015625	21281.810546875	22570.056640625	21615.357421875	25803.8125	20446.962890625	25977.4609375	21015.205078125	23755.37109375	22514.6328125	21559.89453125	20825.22265625	19631.267578125	20388.990234375	20516.82421875	18722.970703125	15233.4814453125	28054.953125	19210.109375
120	150	23679.275390625	25645.5234375	32112.810546875	29479.73046875	23257.181640625	40104.01171875	25753.619140625	23367.59765625	27433.98046875	23994.74609375	10426.3896484375	34134.06640625	23508.75390625	18182.537109375	22474.279296875	24729.431640625	30369.640625	31634.912109375	21546.7890625	36305.95703125	24325.24609375	25819.115234375	22807.3671875	29863.48828125	23357.822265625	19698.259765625	5549.78076171875	6336.82470703125	32304.3828125	25679.048828125	22427.6484375	6817.95556640625	39175.87109375	33155.390625	33926.42578125	39541.6015625	24309.548828125	32258.201171875	30863.505859375	31753.09765625	33293.75390625	33299.6171875	31917.3984375	37636.07421875	30562.796875	31404.669921875	28234.328125	32459.09375	32993.71875	33646.36328125	32240.505859375	41143.63671875	30451.08203125	35281.36328125	32685.45703125	37088.25390625	26319.73046875	33225.375	28958.583984375	31288.017578125	31368.513671875	31721.13671875	32142.21875	25349.169921875	45330.6953125	31151.099609375	29944.208984375	34249.33203125	32744.435546875	38670.2421875	25004.123046875	28137.619140625	30641.287109375	28768.306640625	33818.875	34041.125	29305.390625	35583.01953125	31813.904296875	30037.408203125	26835.587890625	32030.14453125	32958.2421875	34742.15625	32886.640625	41079.81640625	30766.900390625	37718.28125	32328.00390625	35168.72265625	31882.369140625	32679.58984375	30954.376953125	28930.232421875	30493.28515625	31732.44140625	28020.10546875	22857.025390625	43420.51171875	28151.48046875
150	180	29746.076171875	31156.171875	40449.37890625	36960.23828125	31184.6484375	47979.77734375	33397.359375	28353.248046875	33821.234375	29762.50390625	12762.8056640625	42080.3984375	28587.90625	21195.7421875	28072.126953125	30548.599609375	37849.2109375	39310.8359375	28698.974609375	43972.8984375	29600.564453125	31970.841796875	28567.48046875	36372.578125	32108.1875	23179.123046875	6516.099609375	7281.81005859375	38745.01171875	32725.625	26712.5859375	8023.4404296875	47797.64453125	36040.515625	40903.09375	49264.671875	28498.892578125	39888.5703125	38622.01171875	39904.68359375	42610.23828125	41980.4453125	39447.0703125	46248.45703125	37407.72265625	39005.57421875	33660.328125	37596.94140625	40227.4296875	41512.5703125	40534.66015625	51639.03125	38026.94921875	45676.0234375	40586.65234375	45029.41796875	32028.76953125	41589.33203125	36493.91796875	37948.515625	38274.90625	39627.23046875	39484.9453125	31688.5234375	58505.41796875	38393.30859375	37697.3046875	42809.7734375	41389.56640625	47497.9453125	31244.638671875	36239.72265625	38951.5546875	36091.6328125	42007.546875	42839.828125	36473.5859375	45432.390625	37894.74609375	37109.7109375	32213.751953125	39494.390625	39634.80078125	44238.78125	41349.69140625	51356.859375	37182.671875	48347.92578125	39446.98828125	43314.76171875	37951.0859375	40764.86328125	37997.3203125	35583.96875	36030.97265625	38452.84765625	35656.50390625	28465.880859375	49864.30859375	34581.5703125
180	240	31301.6640625	33842.55078125	42573.72265625	38749.7734375	32405.2890625	51171.30859375	35601.4140625	28832.65625	34036.01171875	29461.681640625	12946.0556640625	45224.7265625	30761.376953125	19320.9453125	29415.310546875	31533.25	39126.6171875	40726.90234375	29916.044921875	47041.03515625	30612.4296875	33205.40234375	28343.962890625	38726.5703125	32963.23828125	22181.08984375	6292.55810546875	7250.86669921875	41869.09375	32870.20703125	27158.375	8251.1025390625	50394.1015625	39898.1484375	43033.515625	51630.48828125	30008.98828125	42422.57421875	40822.50390625	43054.62890625	43860.60546875	44201.58984375	41377.171875	47878.859375	38261.3515625	40958.4921875	35393.2421875	40443.3828125	42280.73046875	43805.6015625	41697.6328125	53502.0859375	39190.25	46345.5390625	42144.15234375	47009.234375	34048.35546875	43961.80859375	37752.3359375	39659.71875	39763.40234375	41501.09375	41815.64453125	33685.6953125	56620.53515625	39636.05078125	40763.421875	43060.84765625	43023.12109375	49607.75	26022.62890625	37850.7734375	40847.25	38306.26171875	43332.04296875	44425.796875	38884.66796875	46777.25	39468.69921875	39571.0234375	32494.861328125	42080.640625	42034.9375	46804.3203125	42954.1640625	52302.484375	38860.63671875	49798.6015625	41447.53515625	46197.74609375	38923.8359375	42884.44140625	40123.71875	37527.7421875	38506.10546875	40649.6640625	36937.92578125	27654.2578125	51764.765625	35842.5078125
240	300	30859.4765625	33650.7890625	41532.609375	38352.08984375	32085.19921875	49738.1640625	36427.953125	28664.3359375	32871.3984375	30962.900390625	12427.0703125	43227.90625	31262.08203125	17169.130859375	29017.876953125	31551.875	38562.38671875	40375.15625	28802.474609375	46194.33203125	32175.63671875	31230.1953125	28754.2109375	37705.703125	32559.296875	20779.6171875	6207.607421875	7129.00830078125	39847.89453125	32940.7890625	26031.53125	8360.923828125	48105.0703125	40111.94140625	41650.0546875	49037.234375	30034.41015625	41269.875	39382.97265625	42059.46484375	42646.86328125	42100.4140625	40497.5703125	46306.34765625	36929.16796875	40158.49609375	33813.08203125	39085.01953125	40855.34375	42628.3984375	40132.04296875	51584.12890625	38220.921875	44813.484375	40321.73828125	45874.6171875	34870.2734375	42109.67578125	36769.90625	38180.8203125	38623.74609375	40236.01171875	41932.21484375	33253.59375	53403.546875	39646.20703125	40151.68359375	41778.1484375	42559.7265625	47541.9921875	27361.314453125	37107.46484375	39770.12890625	37898.83203125	42775.42578125	42394.0859375	38766.484375	45055.41796875	38796.828125	38420.359375	31905.830078125	39362.92578125	41182.390625	45324.38671875	41831.42578125	50557.89453125	37615.71484375	48238.54296875	40241.2109375	44634.73828125	37323.9453125	41680.90234375	38677.796875	36364.73828125	37152.34765625	39326.19140625	36224.7734375	29003.583984375	46439.1171875	34583.94140625
300	360	29662.52734375	32749.94140625	40174.4296875	36657.40625	30098.400390625	46820.109375	34728.80078125	28247.310546875	31102.5390625	29404.0078125	11991.3447265625	43593.1328125	30366.2265625	15222.9189453125	28087.984375	31124.572265625	36941.953125	38257.18359375	27258.63671875	43148.15234375	30720.986328125	29771.08984375	28819.4609375	37663.54296875	31593.751953125	17995.81640625	6063.07421875	6933.16259765625	38430.2578125	31453.3125	24534.337890625	8339.7578125	46516.14453125	36180.44140625	38256.87109375	45569.3125	28847.96484375	39211.4453125	37172.78515625	39903.96484375	38829.48046875	39307.92578125	39042.83984375	43126.75390625	36342.140625	38666.83984375	32509.015625	36324.49609375	39034.21484375	39937.265625	38468.51953125	48056.9296875	35917.07421875	43451.26171875	37884.0546875	42542.66015625	33285.26953125	40117.84375	35022.03125	36491.6015625	37330.140625	38002.42578125	37730.35546875	32589.263671875	48762.28125	37145.7578125	37200.7109375	39198.55859375	39849.2734375	44629.94921875	27046.33984375	35793.82421875	37816.625	36568.46484375	39658.64453125	40110.21875	36999.7265625	42429.3203125	37190.01171875	36667.10546875	32104.9609375	36667.3359375	39220.91796875	42492.37890625	39354.9765625	47917.71875	35837.87109375	44719.7578125	38123.41796875	41752.58984375	35952.890625	39787.96875	36885.1171875	34232.91015625	35900.265625	37454.92578125	33950.8359375	28144.578125	42639.89453125	34141.05078125
360	480	27576.419921875	30273.62890625	36042.640625	33986.12890625	27782.78515625	42442.05078125	33611.578125	26107.591796875	28729.048828125	28266.2109375	10919.5859375	40526.12890625	29337.048828125	14197.353515625	26003.4140625	28447.20703125	33701.90234375	36193.03125	24932.337890625	39604.9765625	29575.50390625	27509.671875	27542.001953125	33037.58984375	30488.388671875	15514.435546875	5607.2060546875	6603.81201171875	34454.2734375	29769.83203125	21929.15234375	8374.1171875	41139.7265625	33661.734375	34715.62109375	40416.625	27416.666015625	35565.46875	33427.73046875	36467.1640625	35640.80859375	34806.796875	35785.87890625	38218.40625	33250.90234375	34548.359375	30403.087890625	33423.4453125	34761.3671875	35428.53125	34170.58203125	42526.21875	31995.0078125	38374.81640625	34037.55859375	38104.5625	30976.1484375	35631.40234375	31792.759765625	32400.037109375	33558.296875	34022.078125	35321.99609375	29921.115234375	41182.96484375	34119.1875	33447.14453125	34892.72265625	35430.78125	39028.17578125	24658.783203125	32876.26953125	33773.625	33707.5234375	35765.03125	35011.328125	33758.37890625	36767.41015625	33546.28515625	33295.67578125	28897.857421875	33824.453125	34518.77734375	38127.3046875	35380.8671875	41020.90625	31739.587890625	39959.01171875	34198.16796875	36789.125	32771.28515625	35641.40625	32801.1328125	30652.369140625	32262.919921875	33703.23828125	30648.251953125	26449.40234375	37325.29296875	30969.24609375
480	600	24693.01953125	27643.828125	31182.09375	31093.49609375	23474.8125	37388.80859375	29953.951171875	23854.666015625	25547.255859375	26434.60546875	9966.345703125	33421.65625	26526.55078125	11604.8642578125	23387.857421875	26168.224609375	29194.61328125	32303.365234375	20597.99609375	34118.2109375	27894.20703125	24609.359375	25770.033203125	29772.931640625	27787.720703125	13963.6181640625	4994.7412109375	6168.0400390625	29278.275390625	27301.171875	18728.453125	8226.25	35042.32421875	28824.732421875	28845.720703125	34199.69140625	24653.365234375	31356.474609375	28589.009765625	31564.41796875	29961.708984375	28879.158203125	30682.3515625	31934.5390625	29211.005859375	29535.240234375	26713.474609375	28711.0625	29594.666015625	29767.568359375	29095.140625	33999.18359375	26948.83203125	32380.255859375	29017.296875	32072.5859375	27848.900390625	30240.6953125	27369.490234375	27103.6015625	28805.1875	28802.126953125	30213.080078125	27161.916015625	34632.1875	29451.748046875	29586.83984375	29427.9296875	30953.126953125	32597.103515625	22178.71484375	28473.138671875	29048.02734375	29532.0234375	29846.240234375	30374.56640625	29286.232421875	31460.9609375	29215.109375	29183.830078125	25543.19921875	29101.2890625	29976.01953125	33139.93359375	30551.06640625	33446.83984375	27171.130859375	33367.8828125	28867.142578125	31436.427734375	28115.171875	31040.728515625	28340.705078125	26308.478515625	28540.70703125	28289.666015625	26174.21484375	24023.111328125	30049.673828125	27790.736328125
600	900	20840.119140625	23363.251953125	24286.77734375	25694.478515625	17616.40625	28880.37109375	25639.54296875	19975.2109375	20491.271484375	22709.59375	8287.033203125	25754.3671875	23814.556640625	9391.517578125	19811.89453125	22102.107421875	22880.646484375	26327.642578125	15948.1171875	26718.30078125	24018.373046875	20044.322265625	20787.951171875	23577.26953125	23741.349609375	10913.19140625	4374.60400390625	5612.30517578125	22158.62109375	23017.373046875	14481.140625	7956.0322265625	26700.98046875	23227.861328125	21909.9765625	25539.771484375	20224.30078125	24838.337890625	21640.123046875	24769.580078125	23422.189453125	21812.908203125	24111.369140625	24217.4453125	23208.982421875	23266.09375	21597.333984375	22154.1640625	22759.8125	23350.25390625	22164.96875	26065.234375	20855.326171875	25293.13671875	22210.029296875	25142.751953125	21839.9296875	22883.12890625	21285.322265625	20809.349609375	22627.578125	22189.546875	23031.58203125	22891.43359375	25718.4609375	23673.37109375	22860.4765625	22983.44921875	23897.623046875	24363.99609375	18205.392578125	22777.451171875	22579.400390625	23376.705078125	22994.423828125	22993.849609375	23491.98828125	23950.451171875	22526.162109375	23080.384765625	21105.84375	22040.470703125	23559.037109375	25696.921875	23555.427734375	25092.830078125	20942.08203125	25396.759765625	22697.859375	23711.0	21807.611328125	24117.802734375	21861.892578125	20080.59765625	22585.900390625	22106.43359375	20874.201171875	19589.041015625	22607.40625	22260.275390625
900	1200	17148.19921875	19085.201171875	17146.201171875	19485.982421875	12843.9384765625	20746.59375	20779.611328125	15895.0654296875	16075.28515625	17491.130859375	6896.30712890625	18467.017578125	19212.9765625	7946.908203125	16460.9609375	18181.9296875	16348.197265625	19906.875	11589.0048828125	19363.849609375	19837.681640625	15730.091796875	16734.8046875	16985.75	19764.314453125	9100.3818359375	3747.68701171875	5068.9990234375	15783.9638671875	18884.556640625	10798.8251953125	7611.97314453125	19914.294921875	17358.787109375	16183.9736328125	18616.234375	15630.0107421875	18399.328125	15809.3173828125	18357.71875	17064.740234375	15782.171875	17977.52734375	17603.474609375	17424.5859375	16943.21875	16415.529296875	16116.6591796875	16779.93359375	16926.921875	16392.455078125	18857.669921875	15342.4677734375	18644.763671875	16216.1083984375	17884.091796875	16908.19140625	16827.767578125	15868.7666015625	15237.369140625	16956.83203125	16217.5712890625	16823.09765625	17858.607421875	18306.095703125	17771.060546875	17109.89453125	17186.080078125	18019.833984375	17482.23828125	13757.6728515625	17338.892578125	16713.013671875	17303.30078125	16911.19921875	16908.64453125	17895.322265625	17670.404296875	16532.197265625	17140.84375	16671.578125	16121.8642578125	17574.931640625	19360.716796875	17810.708984375	17814.748046875	15621.93359375	18476.859375	16843.98828125	17357.6796875	16773.283203125	18226.630859375	16061.185546875	14901.912109375	17081.138671875	16513.671875	15042.42578125	15563.798828125	16485.2421875	17017.1484375
1200	1500	15171.7021484375	16210.287109375	13482.076171875	15786.669921875	10042.4384765625	16204.0791015625	17114.041015625	13396.267578125	13621.1533203125	14320.798828125	6100.37158203125	14535.2666015625	16474.431640625	6702.61572265625	14647.3798828125	15605.6474609375	12882.654296875	15845.5966796875	8883.4013671875	15547.625	17143.033203125	13249.07421875	13720.7509765625	12983.552734375	16317.896484375	8060.25	3452.376708984375	4867.6171875	12220.697265625	16531.169921875	9036.921875	7426.8251953125	16187.8203125	13999.5869140625	13083.7431640625	15343.9677734375	13169.0546875	15518.619140625	13065.8828125	15130.0068359375	14624.517578125	13093.4560546875	15155.087890625	14810.3310546875	14493.29296875	13632.9775390625	13677.5537109375	12938.158203125	13820.927734375	13709.1103515625	13411.2734375	15727.4560546875	12747.3408203125	15172.1123046875	13260.6611328125	14813.3662109375	14496.5185546875	13839.8232421875	12868.017578125	12545.3212890625	13793.10546875	13339.5693359375	14337.28125	13713.037109375	14890.25390625	14857.4228515625	14174.0908203125	13755.2880859375	15233.568359375	14526.4921875	11766.59375	14165.86328125	13985.0419921875	14389.7734375	14217.0888671875	14497.6328125	14986.521484375	14615.017578125	13820.3837890625	14163.8671875	13588.234375	13041.9228515625	14693.8583984375	16191.935546875	14858.607421875	15053.90625	12942.8974609375	14902.5849609375	13932.205078125	14227.0205078125	13422.7685546875	15225.8505859375	13352.4423828125	12344.052734375	14178.5283203125	13851.2607421875	12979.5185546875	12752.654296875	13667.9638671875	13982.8173828125
1500	1800	13818.6669921875	14340.119140625	11055.9755859375	13111.2119140625	8581.7958984375	13812.3486328125	15237.0068359375	11561.259765625	11509.9228515625	12576.5048828125	5655.63134765625	11625.5478515625	14144.9775390625	6510.0966796875	13435.73828125	13926.1240234375	10705.560546875	13161.458984375	8110.44921875	13056.7978515625	15252.58984375	11576.7412109375	12341.5703125	11709.2294921875	14030.099609375	7337.8154296875	3292.62890625	4870.93603515625	10534.9384765625	14160.2646484375	8108.55029296875	7315.42822265625	14096.044921875	12531.86328125	11341.103515625	13646.6396484375	11117.1865234375	13476.33984375	11546.9189453125	13416.2666015625	12511.333984375	11791.009765625	13191.6044921875	13128.001953125	12689.212890625	12096.1025390625	11851.6611328125	11474.2041015625	12174.7861328125	12085.1982421875	12346.5986328125	13838.5908203125	11208.138671875	13259.4736328125	11758.236328125	12956.75	12445.4873046875	12243.076171875	11322.55859375	10966.1259765625	12074.1455078125	11925.896484375	11427.96875	12110.2890625	13290.1845703125	12984.919921875	12735.984375	12003.794921875	13528.8984375	12960.80078125	10672.1083984375	12698.4560546875	12420.8115234375	12438.720703125	12288.1865234375	12870.3359375	12847.439453125	12966.751953125	12301.5546875	12378.79296875	12098.5732421875	11307.3408203125	12824.7998046875	13756.0224609375	13114.5078125	13282.3935546875	11539.71875	13142.4033203125	12376.0224609375	12529.142578125	11772.91796875	13402.076171875	11669.814453125	11023.224609375	12513.0947265625	12095.4775390625	11199.1630859375	11268.041015625	12415.50390625	12465.21484375
1800	2100	12929.4765625	13005.0595703125	9572.6220703125	11469.3759765625	7412.20068359375	12198.7197265625	13862.7421875	10592.126953125	10536.6953125	11473.484375	5256.64697265625	10430.0029296875	12463.765625	6316.595703125	12663.498046875	12839.8134765625	9351.955078125	11676.3642578125	7931.03955078125	11757.6455078125	13819.7685546875	10080.85546875	11220.8212890625	9871.1923828125	13117.6806640625	7164.21337890625	3195.72802734375	4786.185546875	9042.8876953125	13236.658203125	7483.6669921875	7239.48486328125	12818.0185546875	11332.6630859375	10592.7421875	12452.4091796875	9613.5390625	12346.1162109375	10677.9453125	12232.8779296875	11817.0400390625	11177.099609375	12233.5693359375	12332.431640625	11360.912109375	11405.8583984375	10694.6669921875	9655.177734375	11223.974609375	11248.048828125	11485.7734375	12941.0517578125	10548.6318359375	11618.9970703125	10717.36328125	11698.087890625	11250.5791015625	11384.958984375	10276.9990234375	10280.8125	11093.146484375	11023.4833984375	10645.880859375	10307.5576171875	13118.6298828125	11929.7626953125	12128.8076171875	10639.7861328125	11990.103515625	11875.697265625	9720.9931640625	11714.759765625	11461.962890625	11313.5849609375	11130.02734375	12199.732421875	11888.8583984375	12085.5908203125	11394.6982421875	11333.154296875	11267.240234375	10439.73046875	11623.673828125	12443.8212890625	11772.73046875	12778.935546875	10385.369140625	11777.958984375	11043.357421875	11262.271484375	11231.369140625	12250.205078125	10788.8271484375	10245.443359375	11346.578125	11060.5673828125	10625.279296875	10380.73046875	11510.0771484375	11047.892578125
2100	2400	12065.2197265625	12128.6640625	8325.0791015625	9820.7861328125	6556.36376953125	10802.8388671875	12534.4375	9245.0166015625	9315.431640625	9508.7236328125	4862.75927734375	8945.4677734375	11328.33984375	5269.0498046875	11856.189453125	11752.640625	8135.29150390625	10256.078125	7017.4443359375	10375.67578125	12416.1689453125	9605.5224609375	9653.083984375	8792.98828125	11487.4775390625	6417.33740234375	3041.480712890625	4652.04052734375	8180.56982421875	11910.4228515625	6969.44189453125	7126.23681640625	11931.79296875	9965.7509765625	9681.673828125	11644.66796875	8887.28125	11448.634765625	9822.4658203125	11134.6494140625	10634.1025390625	10197.7265625	10871.0986328125	11549.068359375	10745.71875	10103.37890625	9464.4638671875	8775.615234375	10326.4189453125	9869.048828125	10593.2900390625	11630.9580078125	9575.509765625	10760.2275390625	9586.8798828125	11024.35546875	10387.5556640625	10426.49609375	9399.0947265625	9487.345703125	10031.06640625	9960.1318359375	9848.56640625	9829.744140625	11294.865234375	10907.4013671875	11002.1708984375	10023.5771484375	11261.619140625	11001.123046875	8773.7978515625	10681.919921875	10541.3056640625	10512.7392578125	10811.109375	11283.314453125	10947.998046875	11222.693359375	10384.84375	10458.2880859375	10044.50390625	9336.3681640625	10837.6953125	11554.2744140625	11197.8525390625	11931.9599609375	9690.373046875	10374.5693359375	10259.9609375	10187.376953125	10114.81640625	11467.8447265625	9909.8955078125	9470.7158203125	10402.6640625	10193.375	9599.45703125	9559.0791015625	10916.255859375	10483.73046875
