frame_start	frame_end	parasubiculum	fimbria	hippocampal_fissure	presubiculum-head	presubiculum-body	subiculum-head	subiculum-body	CA1-head	CA1-body	CA3-head	CA3-body	CA4-head	CA4-body	GC-ML-DG-head	GC-ML-DG-body	molecular_layer_HP-head	molecular_layer_HP-body	Lateral-nucleus	Basal-nucleus	Central-nucleus	Cortical-nucleus	Accessory-Basal-nucleus	Corticoamygdaloid-transitio	Anterior-amygdaloid-area-AAA	Paralaminar-nucleus
0	30	0.8802	0.37771	3.96185	4.57285	1.00442	10.19393	0.9865	11.04368	32.37987	1.62004	6.41469	3.70821	3.16828	4.93608	3.9813	9.81679	7.47867	5.33232	1.84731	0.32333	0.69118	0.74704	0.67802	15.26073	2.0467
30	60	1000.30372	1032.90083	989.86895	1016.15714	833.83137	947.0255	738.98856	669.70227	616.6022	1629.56664	854.95389	1300.21715	763.96111	1049.54211	898.19818	871.24394	704.14627	552.35452	522.61631	292.85193	241.28946	282.67418	354.12145	540.99797	875.08813
60	90	6666.9094	5762.64175	6026.77453	5644.49259	6475.2946	5293.97646	5470.21967	5850.73688	5161.00981	6715.03973	5155.78868	6548.13974	5155.39618	6284.69981	5546.30124	5752.40671	5440.60867	5674.02755	6606.17196	4697.95752	5364.05664	5313.08579	5672.30091	6665.6583	6168.97035
90	120	20020.6479	20180.62051	21334.51553	20456.3634	18313.01214	19949.35836	20987.22197	20568.97305	22270.25186	23172.77026	20987.49507	22613.67841	21830.3454	22227.69531	22197.04446	21250.05255	21137.59077	15835.12367	18268.65183	16036.50488	17135.96289	16561.81106	17593.55695	16307.90781	17785.20564
120	150	23999.34251	25754.68086	22928.70145	23500.47651	21307.40755	24918.46623	22754.99555	22981.21802	25759.1501	24433.74915	28557.22351	24313.72145	25477.41038	23954.94879	24776.00448	24087.25744	23494.00117	22901.0828	22608.35596	21934.08398	17992.80762	19604.78013	18761.41253	20571.36133	22921.65848
150	180	31171.15412	26360.31943	25866.20564	27396.65039	24158.58262	28637.65187	26272.86383	29470.09464	29202.45576	23506.77161	29014.65336	22919.97581	27399.40565	23575.02378	27227.1767	29070.71496	26877.23149	26791.69958	27927.88964	23850.57422	23707.73926	27572.84028	28195.14191	21689.45625	31638.41295
180	240	25990.66974	26063.41045	23014.43108	23530.30182	21691.15404	26010.05356	23892.98388	26981.308	27841.44893	21444.24158	28489.81275	21879.87425	25853.36794	22482.04704	24731.34409	26025.56049	24584.92515	25797.60217	25193.32667	26244.65625	23329.68848	24515.54692	23343.66825	19990.23008	28013.94503
240	300	28122.00071	26282.29297	24671.6157	25803.90321	22205.90215	27762.54232	26453.6473	28555.47234	28703.36973	22053.5697	28245.83747	22785.35922	27488.80176	23975.54509	26054.11914	28103.97748	26421.53765	27501.32626	26270.93164	23769.11328	21552.1875	24693.47139	24902.38555	22212.17109	28057.44754
300	360	22306.64719	26225.31064	24667.09105	23190.23558	24145.07721	24277.8826	25919.94804	23600.19425	27391.3459	21525.17932	27711.41253	21823.79703	26717.27321	22026.63128	25859.47024	23867.83769	26068.52515	26444.01356	24379.43295	25401.41016	21678.15527	24023.06685	23093.04821	25425.68789	23467.74693
360	480	21759.82191	22566.78389	19789.59166	20137.68092	18878.15658	21388.13546	22322.8125	20472.73559	23664.90518	17242.18506	23968.48633	17562.84446	22714.14093	17891.61052	21416.84559	20363.54178	21728.24937	24012.61081	21511.05659	21948.91797	17237.30078	19739.76719	19507.26451	21643.38984	22674.0678
480	600	18367.00178	19616.40698	18298.5272	18454.41492	17030.93447	20440.1972	19444.07222	19638.12668	22192.90664	16851.74408	21756.70873	17349.14814	20655.46319	17815.39496	19757.63591	19710.04601	19757.79998	22951.56982	21315.30003	23839.13281	18730.83887	20086.51743	18888.94102	20330.80664	20812.54994
600	900	19008.20339	16043.49209	15681.69564	16938.16429	15117.2987	17960.23381	16146.04108	17140.04262	17216.09375	13695.88141	17096.01775	13812.62763	16697.76656	14005.98387	16319.34467	16939.16864	16398.79534	19500.2741	19267.73723	16368.95117	15220.82568	16840.44612	17484.28831	18824.7418	21133.44782
900	1200	14037.27974	13905.43301	13479.06203	13491.76445	13108.84847	13694.90775	13797.79217	13587.80434	14522.54028	12563.85339	14417.54972	12323.59375	14260.5237	12553.14776	13880.08577	13438.34128	14155.3459	15190.62065	15213.16201	13909.65527	13290.80322	14426.86963	15006.60352	15495.73301	15493.82575
1200	1500	12810.05877	11643.05474	11737.15704	12110.3391	11054.16299	13040.03997	12042.73703	12710.69694	13106.00737	11663.41168	12230.27352	11516.43893	12162.11351	11548.25382	12127.67526	12650.44063	12239.29648	14879.96978	14170.60619	12959.39453	12094.74316	13007.54275	13124.81353	15158.99043	14423.79046
1500	1800	11331.2413	10608.49888	9707.13863	9774.90591	9420.68978	9821.93234	10327.84666	10193.32481	11124.66904	8825.35989	11279.45826	8674.62169	10660.37275	8862.71034	10358.26189	9749.28316	10456.67131	12145.62416	12015.73501	12036.62402	11948.18701	12094.39031	12375.62475	13056.23613	11570.22112
1800	2100	8605.96662	10525.01548	9627.76	8774.92176	9247.82773	9218.90658	10729.65966	9003.38281	9811.90005	9666.69287	9898.24389	9322.68059	10511.95906	9241.80431	10128.31158	9022.7207	10205.20796	11184.46267	10705.69731	10492.69336	9541.51758	9926.73271	10102.34927	13280.91855	10364.9036
2100	2400	7925.3924	9394.0509	9036.68566	7829.86954	8643.75553	7658.93396	9632.83477	8071.42558	10324.16479	7906.92853	10039.25522	7719.70275	10188.26416	7784.91971	9798.85122	7828.87437	9864.57239	9953.90006	9681.04318	10952.46875	10068.47266	10143.23135	10171.80658	11658.15508	8666.23082
2400	2700	7613.63809	9326.97437	8487.66044	7663.43025	8332.59634	7652.85174	9463.2066	8445.28472	9126.19927	8911.91821	8885.02951	8645.75079	9100.67047	8633.30868	8794.17736	8203.77793	8846.17535	9263.47743	9064.31663	9453.53027	9733.42871	9622.73313	9576.09434	10648.34199	8032.78006
2700	3000	9103.17614	7145.14221	6849.62491	7384.24933	6953.59451	7196.26253	7601.20205	8446.08364	7268.97908	6317.37665	6980.5304	6080.13291	7086.74104	6332.95323	6833.23842	7746.1783	7177.0245	9119.24772	9200.44961	10991.29785	9635.05371	9883.61169	9746.62235	8510.27568	9093.91818
3000	3300	8076.85742	7331.13923	6659.08129	7622.1744	6146.03158	7605.90637	6830.59675	7890.96509	6500.80603	8419.0527	6866.16081	8224.91692	6677.7048	8171.84432	6654.19632	7845.22134	6417.77765	7863.6317	7755.11903	7490.96143	7553.1582	7622.57983	7907.187	9681.81348	7869.45054
3300	3600	6375.40225	7493.00642	5981.21989	6243.53396	6097.74342	7353.07317	6551.61291	8256.70853	6823.21592	7779.74207	6981.81923	7813.20236	6426.45491	7979.9143	6257.9645	8020.65125	6052.43405	7578.74322	7253.42841	8460.62109	8121.1897	7667.77501	7266.91735	6764.96025	6835.80071
3600	3900	6812.48007	6264.726	5586.5788	6084.06312	4648.53176	6385.7407	5873.33858	7445.81846	6363.24983	5777.27521	6446.20034	5591.97683	6183.61888	5920.99989	6023.88178	6922.09844	5779.81561	6958.75754	7867.57097	7157.11914	8081.24243	8141.48584	8462.69683	5943.23223	7780.70578
3900	4200	6562.73975	5041.93531	4040.54026	5216.75859	4851.17309	5578.37055	4797.49218	6982.59606	4492.12777	4893.61852	4710.60433	4820.46958	4396.131	5173.26277	4118.82587	6140.44891	4421.32626	7349.72079	7542.1747	8040.34912	7747.42798	7955.92181	7936.83754	5978.8082	7602.12277
4200	4500	6407.96937	5159.68534	4761.46226	6001.95549	4448.99395	6536.77983	5337.991	7094.58994	5011.13905	4806.68388	5165.98202	4930.6562	5349.52846	5820.5589	4904.31078	6879.49461	5108.42238	6121.73195	6291.70231	5462.98633	6815.11157	6958.10854	7216.17938	6090.69277	5949.82854
4500	4800	6331.75697	5503.5488	5057.97884	5714.52278	4766.85063	5426.32476	4849.26155	5419.07906	5447.88972	4485.78194	5604.62438	4693.78843	5340.92148	5011.50651	5164.69181	5407.88152	5077.57408	4713.11653	4733.53877	5167.66553	5659.04688	5148.5754	5086.99883	4979.78906	4646.94915
4800	5100	5934.93648	3790.85597	4385.24026	4446.26818	3875.62459	4115.97955	4641.47744	4745.11975	4477.43037	3488.92216	3340.97579	3495.64355	4454.73768	3860.02225	4232.68048	4444.87803	4404.66619	4994.43332	4263.59336	4903.729	5542.46484	4633.98087	5220.16086	5543.0165	4077.69591
5100	5400	6827.04233	4227.19343	3761.43624	4667.84338	4110.99071	4158.64063	4415.81914	4744.33087	3948.55824	3922.67793	3719.68453	3540.72192	4031.2079	3581.69663	3818.89406	4583.32698	4004.94228	5011.13155	4177.31505	3635.604	2963.52881	3435.28264	4030.17695	6345.05742	5202.01604
