frame_start	frame_end	parasubiculum	HATA	fimbria	hippocampal_fissure	HP_tail	presubiculum-head	presubiculum-body	subiculum-head	subiculum-body	CA1-head	CA1-body	CA3-head	CA3-body	CA4-head	CA4-body	GC-ML-DG-head	GC-ML-DG-body	molecular_layer_HP-head	molecular_layer_HP-body	Lateral-nucleus	Basal-nucleus	Central-nucleus	Medial-nucleus	Cortical-nucleus	Accessory-Basal-nucleus	Corticoamygdaloid-transitio	Anterior-amygdaloid-area-AAA	Paralaminar-nucleus
0	30	153.82098	217.35769	514.95123	181.52685	170.98031	119.09257	448.39612	135.26305	460.98245	144.64813	197.50067	233.77432	369.23694	157.1314	497.14097	167.68534	439.38866	135.34981	370.88092	78.59154	124.46643	99.38592	24.94977	38.39099	99.18945	102.80666	32.15598	237.92795
30	60	5896.36385	6491.03008	6639.50733	5169.30803	6697.24726	4605.2215	7694.16919	4072.06732	6163.88274	5816.79665	5643.73045	6313.46422	5982.19362	5695.73511	6037.20485	5836.01882	5955.04675	5423.81909	6173.30013	4400.94636	4806.31144	5080.6739	4735.9825	5033.39274	5113.1339	4704.60865	4371.45409	5223.37579
60	90	11462.14926	19974.73352	14767.30236	14013.17712	18545.71379	11983.19774	15575.70749	12826.77545	15811.49149	15282.18815	16685.24418	14333.57617	16035.58945	13636.34283	14731.22206	13899.20098	14952.97098	14313.59279	15828.88662	14120.21481	16190.53903	14691.29581	16713.3457	14953.17018	16385.22177	17298.19611	12507.02719	16266.75946
90	120	20022.50912	27578.78003	26568.45933	23249.37118	25763.60624	20315.52931	25490.05987	21388.3094	26971.45172	25070.25546	25639.61846	24277.91496	24886.48726	21523.05269	25546.64238	21622.50501	25239.35661	23597.3145	25286.99225	26407.92501	26760.21788	24046.28983	25596.23242	23852.64857	25902.31196	24867.37627	22062.69391	27100.39211
120	150	27575.72363	38635.26495	35967.89311	34254.78791	35680.17869	30024.49454	35589.31825	31062.49917	37899.7942	34286.90699	36944.17024	33727.36362	35067.05096	33117.10667	36642.12259	33115.98231	36557.95873	34145.25426	36817.50409	29704.31364	32003.30502	37526.59112	34966.5599	32633.61628	35964.07974	33343.35258	20333.11609	36319.88948
150	180	24072.74394	37271.59692	36624.95437	31175.54305	38297.01025	24975.48825	33535.24353	27040.15578	37468.68427	33021.6179	39844.53437	31580.81363	37582.10316	29629.5965	36269.37118	29952.89509	36254.82726	30990.58055	37492.17073	33365.90796	39804.11203	35376.23989	32262.64421	34633.6401	43323.3246	41834.65806	28132.73852	38801.06634
180	240	24637.18899	35490.99933	38509.52617	33782.46978	35586.3472	26482.21694	35433.9249	28164.73264	40691.96501	33503.02094	41116.19352	34720.9007	38494.56599	31890.17366	39223.97532	31844.6934	39176.9981	32592.58017	39488.70752	32070.2856	33892.99462	35493.19107	37080.99674	35607.10859	37410.8566	36199.04452	29107.40164	32031.12406
240	300	23262.56101	34823.94067	36510.64825	31855.22783	34955.32699	25014.97343	30379.52025	26290.14685	37432.9731	33424.55044	38875.64579	34929.11269	35865.73245	30963.70505	36728.94064	31086.01814	36622.5529	32289.52998	36251.4593	30160.7777	33261.72967	32222.68784	29499.16927	32866.37422	36499.8832	35899.02485	30222.19836	31229.56378
300	360	22596.58219	30097.60352	32153.60662	29823.17245	29791.41233	24290.35441	28385.68622	25132.50508	33929.39941	30558.88967	35184.27697	30249.36344	32676.53317	29554.45681	32396.34086	29603.38753	32415.09724	29826.67382	32874.0787	28283.96231	32608.63958	32024.50866	26207.25684	33115.23516	34736.17386	34066.80972	30681.9018	28979.84321
360	480	19501.27878	28530.03082	28573.63579	26422.87514	28577.08442	21051.83077	25147.87597	23059.40005	28528.81785	27303.48531	30626.15376	28439.64762	29218.80484	27256.90425	28867.88723	26841.94019	28915.91417	26401.88224	28846.51389	27747.33888	31139.35154	29436.13969	23016.57878	27079.25443	32677.60244	30043.77801	27691.38531	27169.07617
480	600	18131.75026	23624.15704	26655.04982	23501.77809	23876.92673	18825.19997	23338.37454	20616.97036	27612.25113	24205.35079	26302.18205	24833.19827	26252.78263	22689.67884	27084.97764	22702.09277	26802.68125	23277.49596	26294.63081	24293.28932	26634.8473	25619.27548	21181.73503	23225.97995	27130.86363	26165.31791	25883.17594	24677.2628
600	900	16319.42419	19395.28094	20662.37202	19780.29328	18609.55035	17005.76028	18096.13364	17461.64981	21091.32479	19777.47143	22339.65421	20975.26804	21234.97052	20028.64022	21386.51888	19702.67103	21528.5822	19441.42203	21144.08676	20210.67236	22520.09633	20009.58212	18002.41797	20547.85378	22576.31546	21858.96447	23128.3118	19564.7302
900	1200	14349.09868	16332.72238	17405.754	17020.66118	15969.08491	15349.57986	15267.36306	15518.01772	17268.63202	16889.06397	18373.74708	17408.05994	17947.62408	17422.98993	17694.24574	17104.88072	17784.06127	17045.8249	17716.54305	17260.90477	18084.30156	15462.15222	14428.79395	16303.83359	18284.6757	18146.0265	20017.26172	16555.07991
1200	1500	14536.7104	13559.31476	14725.48323	15239.11801	13926.37238	14945.95975	14119.31807	14240.59701	15094.81093	15219.29224	15340.26044	14443.49818	14904.44349	15763.917	15097.38198	15545.58954	15201.99736	15419.40773	15047.60418	15462.29764	15714.54431	15081.92302	14602.0791	14806.8362	15968.40706	14953.60084	18055.69016	13974.72235
1500	1800	12942.48743	12603.8089	13839.80971	13990.11891	13620.79097	13955.36861	13050.30607	13721.37173	13753.72671	13130.42104	13876.53091	12943.1586	14112.25679	13469.05144	13993.29802	13379.56515	14008.93563	13679.07737	13887.27462	13172.53459	12951.51156	11140.57273	12641.29476	13256.85482	12879.93247	13709.57114	15683.85586	12177.29701
1800	2100	11024.78361	11590.54459	13675.11944	12339.12665	11545.93979	11442.31371	11528.03551	12158.18466	12457.3354	11758.53741	12563.0516	12978.29107	13231.74232	12249.52856	13471.0545	12099.42057	13131.6823	11850.80102	12635.27654	12496.99407	12460.19822	13204.86617	12843.99349	12921.46719	11778.48692	11649.37812	14445.91418	12129.22629
2100	2400	9964.18637	10823.06009	11545.61237	10969.15573	11152.74445	10090.06661	10453.38716	10863.20008	10732.43385	10804.19866	12041.17912	10308.39019	11658.8998	10771.18544	11317.30445	10780.89981	11291.91657	10697.85812	11350.30246	10226.41424	10474.97406	10568.74758	11090.68473	11653.42591	10910.09243	11376.57663	11367.88852	9181.64147
2400	2700	10332.18593	9719.42944	10816.1199	10739.79466	10718.13769	11175.32534	9844.953	10962.92235	10935.66575	10080.00602	11152.46143	9987.23792	10513.88912	10258.71935	10585.38434	10382.12927	10563.97614	10720.91892	10589.61596	9112.55633	9630.53801	9832.48981	11593.2762	10954.96777	9429.16565	9466.24271	10059.55648	9438.85008
2700	3000	7971.28742	11477.58249	10042.28216	9883.38821	8720.49347	8669.2971	9542.93466	9413.58707	10223.48117	9501.02983	10206.05438	9369.02118	9869.9366	10066.25898	9984.22481	9827.40219	10072.48463	9467.18978	10130.96693	8979.45794	8963.00658	9549.22639	11073.77165	10295.69023	9667.3766	9966.1811	9611.90223	8047.91795
3000	3300	8720.50858	9071.20152	9084.66828	9810.56002	9105.26787	8980.17419	8090.35991	8888.45626	9634.99603	9052.95271	10193.53596	8981.52808	9479.0341	10022.3311	9365.56755	9784.23552	9555.272	9208.54426	9458.72967	8441.73199	7825.14493	7362.22291	9467.95882	9413.34759	8132.34594	8637.06084	7849.86443	8563.27856
3300	3600	5290.0328	8466.40027	7785.2478	7127.42165	7923.07578	5667.87657	7144.02466	7078.90392	8050.58337	7576.45381	8703.04881	7215.62521	7882.23656	7086.15215	7739.16964	7041.81997	7771.09219	7153.59522	7910.22466	7689.5168	6665.17159	7516.12326	9135.62744	9279.67145	7643.33731	8193.42455	8026.84719	6034.65218
3600	3900	7017.65543	7324.9409	7281.33326	7731.90232	7608.18841	7681.26382	6826.14811	8315.36831	7486.06574	7354.07949	7931.42315	7033.76156	7761.28681	7034.32065	7527.13264	7193.59238	7585.7524	7493.18112	7517.49583	7166.70342	6752.63276	8096.83076	12399.75374	9705.33148	7396.14951	7363.13357	6931.18207	6413.59015
3900	4200	7291.65125	7827.49763	6754.1614	7182.3071	7331.40438	6908.1703	7544.09392	7451.03184	7264.18622	6787.03415	7101.50267	8178.62788	6875.18809	7269.00483	6757.05518	7249.12909	6854.00918	6978.86143	6878.23033	6367.40749	6649.16562	7338.317	8222.97786	7717.42692	7084.4828	7427.49006	5968.93379	7020.41534
4200	4500	7199.99902	8993.88792	7861.56122	6599.58841	6973.83722	6193.62353	7196.04267	7002.08158	6900.77273	6802.07574	7192.08261	7780.74079	7682.30829	6075.53692	6995.03109	6333.20552	6994.96139	6625.09728	7136.86017	6317.69868	5656.50399	8259.34195	8279.97095	10051.41445	7618.7581	8338.76428	6794.1034	5877.29477
4500	4800	5648.19599	6837.34698	8439.74165	6366.19474	7185.61793	6343.99799	6090.92158	5814.43485	6487.87426	6346.49931	7044.58051	6520.30181	7724.78713	5930.84078	7550.83086	6172.84971	7205.00938	6278.5291	6945.20825	4974.02022	6309.85719	8276.78494	9524.72119	8033.17907	7084.15838	6182.66642	5343.41557	6146.10375
4800	5100	6234.07291	9068.65775	5820.2285	6478.59002	6280.08608	5995.56799	5228.411	5736.73124	6146.1906	6900.84705	7589.85507	8183.92508	7412.18694	7136.30221	6019.32473	7392.73715	6424.18961	6829.64954	6719.75899	3889.19487	6274.40523	9374.5897	9184.25456	8713.47738	9113.40643	8453.35875	5410.80547	4901.49137
5100	5400	5702.941	8445.79648	6583.77386	6271.47871	5737.46459	5645.28741	5274.28613	4661.81233	5740.03155	5124.65132	6796.16157	9635.46869	7446.84499	7823.85721	6478.61247	7159.82443	6593.25889	5597.60069	6524.56426	3933.03695	4824.26594	6437.86441	7995.23136	6444.29062	5079.65237	5701.94624	4560.22266	4642.1086
5400	5700	6264.5397	4956.83353	6399.33825	4480.92302	6305.46519	5079.25446	5168.9785	3645.93442	5362.55724	4653.34847	5334.80184	5831.52091	6724.93166	4336.54561	5859.46572	4807.35672	5748.63418	4091.5146	5700.10891	5203.07452	4132.11199	4381.77822	6324.63835	6868.81048	4529.65782	5794.30943	4451.79182	4606.24109
5700	6000	3112.26852	7101.162	6281.34268	4548.8807	8798.09487	3605.34234	4852.12675	4736.78073	5073.45325	5129.68256	5401.14938	5377.35608	5416.82103	4288.75212	5722.99329	4166.73377	5383.89768	4650.73214	5096.67817	6445.01476	6381.69286	6002.07335	7316.01164	6193.13499	7112.83389	6819.93893	7700.83928	5506.2578
6000	6300	5270.44538	5489.65382	5919.3946	6400.26558	4021.8255	6127.82782	5307.51365	5667.34874	6170.20927	6175.93988	6083.88425	6458.50067	6810.95363	6813.47456	6066.20519	7169.94189	6153.53822	6438.7059	6259.7724	3064.01717	4566.2755	5584.54874	5664.73519	5001.89157	4536.31087	4669.36261	3790.60121	4740.68585
6300	6600	4350.93832	5153.85867	4599.74306	4224.3712	4907.81044	3609.83221	3081.26611	4594.70096	3352.10107	6018.7764	4702.04085	4363.62792	5008.19979	4588.66919	3835.17621	5174.84253	3789.27996	5423.62941	4077.96737	5212.22243	2812.50801	3241.65443	3232.21753	3814.09772	3346.65914	3426.76074	6242.282	2965.41439
6600	6900	4283.78906	6381.49236	3916.90899	3657.64899	5122.84773	3856.04082	4216.85474	3018.16632	3234.96822	4478.5906	3328.03259	6301.18762	3128.00916	7712.10689	2964.8732	6833.78572	2879.32505	4624.1726	3027.92856	3904.95215	4732.42761	6812.42733	5885.52661	4385.9043	4714.6757	4384.33835	6484.49199	3389.06799
6900	7200	3614.75477	6273.89961	6059.91922	6538.89438	3737.56453	4466.6695	6254.3689	4257.05979	7040.36691	5405.60305	6762.44827	6067.29484	7208.34109	6084.08625	8480.99549	5693.79507	8416.42333	4691.58952	7594.63474	4170.61053	6877.72656	5641.48907	3829.77738	4299.05518	5773.10827	4883.51256	3023.88445	8994.77862
