frame_start	frame_end	Left-AV	Left-CeM	Left-CL	Left-CM	Left-LD	Left-LGN	Left-LP	Left-L-Sg	Left-MDl	Left-MDm	Left-MGN	Left-MV(Re)	Left-Pf	Left-PuA	Left-PuI	Left-PuL	Left-PuM	Left-VA	Left-VAmc	Left-VLa	Left-VLp	Left-VM	Left-VPL	Right-AV	Right-CeM	Right-CL	Right-CM	Right-LD	Right-LGN	Right-LP	Right-L-Sg	Right-MDl	Right-MDm	Right-MGN	Right-MV(Re)	Right-Pc	Right-Pf	Right-PuA	Right-PuI	Right-PuL	Right-PuM	Right-VA	Right-VAmc	Right-VLa	Right-VLp	Right-VM	Right-VPL
0	30	133.3105	392.12927	276.62394	442.90725	434.13653	363.57391	472.03222	717.48351	493.37836	707.86437	603.17889	336.43979	264.36204	590.4136	592.19679	354.19085	398.86008	144.01142	284.96033	161.58857	272.60936	180.94356	425.31041	219.71097	635.57719	505.16267	239.47783	450.80798	532.05518	370.88852	608.91533	510.29097	659.84972	499.24992	533.55209	547.05194	194.59658	497.42981	239.98585	520.33206	325.81122	334.45541	697.88432	358.7594	385.61512	187.45953	458.52295
30	60	9578.7505	7385.76626	10245.6094	8395.01174	8667.23605	8082.91011	7878.17193	7630.2213	10356.63456	9636.41492	8591.71451	5469.70171	6821.93435	10151.00292	8112.14899	10209.67695	8033.57519	6624.2631	5815.83426	7190.65422	8098.81637	5713.46061	7710.3593	8807.43915	9441.97009	11572.64243	8907.03289	8532.88322	6368.85355	8626.40445	8505.1051	11941.22177	9942.89043	7556.6175	8506.84637	11680.94434	6624.91014	9342.70512	8419.50279	7516.55131	7906.57124	7145.86037	10104.67432	8587.668	9026.2377	4913.05729	6644.61645
60	90	19978.63564	20122.46019	23360.57963	23542.0683	22690.2862	18262.17719	21473.37708	19606.92773	27060.02134	25468.22908	21687.46091	16784.26378	23624.28398	23361.3751	20681.01741	18533.05151	17955.80351	17112.07263	18518.66797	20645.4685	22064.96227	14862.23958	18155.34157	18938.96789	19199.28615	24023.91106	18869.04578	20491.13103	16757.46866	19488.4596	19063.03601	24899.70868	22712.0858	20743.94815	16412.93084	21729.75391	16570.875	21322.76871	17925.8193	17038.23157	17936.58123	15825.8072	17838.45508	19486.78065	21647.48606	12062.5446	17452.80143
90	120	34188.38278	30009.97519	43740.32946	39029.38041	34042.0918	30115.08801	33602.18419	27922.69727	45851.84681	41465.15726	32461.8176	26220.69878	31229.67273	40089.81407	30456.2784	28856.97708	28338.44073	26166.78749	29684.58984	33343.06942	37338.12144	21950.55078	31558.03399	33651.19416	32952.89597	39767.10036	35151.08707	29877.10148	29641.75501	30675.45516	32356.31885	42087.07579	38486.37239	36896.32695	26657.02788	43478.73047	31941.1541	36779.59445	30868.96411	29664.79997	29922.19231	28773.17972	32641.58545	34629.36705	34918.84972	22102.15365	28767.80188
120	150	45631.6871	38636.08421	49138.12092	46621.56129	38186.18331	40347.4437	42380.4805	38505.93707	54386.1973	50158.1241	44324.32403	35616.727	36326.22953	48934.44371	40022.28973	36167.23164	36723.71609	34372.43005	36167.69308	39855.21357	43144.39609	28664.89616	36812.83495	42547.10929	38503.81793	51085.92007	45548.32619	38418.56471	35292.9407	40657.03342	35994.38013	50917.05892	49183.34218	43938.55773	35701.80043	44553.34375	38763.84316	48602.65462	40325.15963	32984.77544	38040.38179	32589.98625	38130.46631	36594.38797	41031.68961	25292.12435	35145.81203
150	180	42285.99878	41804.5315	49629.41477	48178.75387	41396.59124	38501.68399	44751.86222	35476.2934	53699.64518	49313.63662	43473.01607	35435.83333	36372.13509	54022.07021	38784.10942	40444.21945	36959.74988	37319.82121	37504.55692	40322.28853	44374.62132	27105.47363	42260.35163	38792.03976	41591.1312	44787.17007	48020.63474	34967.4882	36868.98416	39900.67669	34083.13257	54215.58948	50521.87763	39235.66135	33547.15412	53839.14844	41859.20477	54102.79874	38965.04328	40237.32001	38164.08413	37732.71074	39165.34595	42327.64727	44154.29627	28457.64062	39118.55209
180	240	39968.80116	41959.73851	46984.30238	43936.74934	37157.5189	36501.08048	38982.88843	29971.77474	50687.38383	46634.36826	42803.74149	38218.63889	36589.27124	47826.74677	39225.83557	37525.37638	35332.5288	34095.95213	41576.45257	39973.37311	43866.38238	28821.29785	40637.84796	37845.31384	42657.95223	44312.46995	46097.92253	32389.16593	35795.67905	37014.52481	36097.55737	53279.76504	47606.74317	38214.02665	35521.66264	53609.76953	40590.03234	49585.63505	37445.13127	35551.02257	36406.30259	36524.31583	41160.01074	42648.68549	44964.3487	30394.79232	38696.28534
240	300	39459.09131	39452.10201	44095.83647	46637.49802	36621.07631	33073.48538	37980.43787	34482.30556	49413.95296	44702.93983	39391.33672	34791.57595	37337.30778	46323.79312	35996.43499	37004.51853	33733.60445	35067.27765	39770.57087	40337.61447	43174.2975	27870.39681	38929.35907	33976.50752	36838.91882	41994.00421	44351.59209	31471.97843	32880.91905	36499.52672	32888.53711	48184.77763	44002.87987	34908.54757	32220.13814	43752.86719	38085.26262	45194.22426	36366.88799	36200.59748	33600.30611	33095.53986	36369.66943	41514.33105	42672.09414	25020.0957	36946.90611
300	360	35603.74103	34959.799	40968.79075	43021.45361	33765.97893	33343.29261	36800.48768	29877.82248	46197.87269	40533.9146	38155.9175	32506.45551	34183.66089	45336.63336	36166.52067	38193.27793	34563.19916	33056.86599	35879.93917	37485.10638	40300.37375	26667.90951	37115.34856	30548.46527	37346.76359	39575.50481	42218.81642	29036.13043	33281.85239	33798.81627	29339.91187	45143.55167	40523.09425	39637.53337	33421.33363	43188.88281	38739.11625	46166.42968	35058.4835	34386.6726	33040.21743	31256.87289	38195.77881	37607.32972	40109.7173	26820.41536	34943.1994
360	480	29936.84471	33562.4188	34934.43706	37393.95558	29745.15674	29503.70397	31972.73496	26979.2079	39814.65091	36911.59415	32176.058	31579.1276	31213.77022	38341.24887	32518.44832	31543.51845	29586.31501	30114.63104	33248.8683	33789.97158	36336.54581	26887.111	33916.8334	29151.18298	33660.55513	34325.64573	38467.09693	25672.38213	28418.90703	31459.92675	26258.52295	41146.94399	37291.55662	31728.64531	29473.2397	39397.98438	32992.28742	38216.72174	31442.80037	30078.29335	29250.16794	29244.61292	33090.70776	35682.85117	36930.92171	23363.60742	31559.47955
480	600	28551.00537	31722.85662	31182.48588	35169.5873	24514.66992	27597.7858	27165.70923	27157.59049	35318.10341	32098.58226	32454.87691	30961.81489	29593.69014	35484.77345	31184.66627	29128.22978	27240.04267	27704.08844	32461.64397	31437.68013	33021.50241	25886.80859	31460.57822	27644.35511	30617.3829	29688.51022	34915.86254	23687.0242	26347.17263	24564.66553	27462.95825	35854.32814	32245.67174	30733.95092	28705.82901	34275.94531	30545.81496	32800.0095	29116.34861	27361.33934	26680.28908	27414.82334	29739.28369	32359.37504	33118.5376	25587.89453	29958.69678
600	900	24590.88847	27826.57264	25653.35334	31375.58115	21572.90506	25409.47907	24092.3544	22705.35786	30759.79572	27894.42356	27909.3443	25889.29167	27009.69373	29416.33701	25807.59452	24282.36397	23348.92661	26263.02098	28922.94448	28786.99839	29192.31335	22109.95345	27939.51373	23244.12815	27648.14275	25932.74174	30238.01404	20181.5918	23841.8768	23199.21227	23372.16699	29688.77097	27161.84365	25571.35026	25771.16903	29665.50586	27579.28742	29367.05525	25684.0346	25075.87242	23357.82861	24791.22765	28006.39062	28354.17125	28856.42647	21964.19401	27457.04361
900	1200	20649.19984	23555.46342	21720.53125	25966.49788	19788.35407	24133.55084	20983.15895	18111.18121	24343.462	21943.00629	23814.69786	23205.91862	22606.70805	24151.34042	22881.19441	21821.38614	19935.79349	22937.35775	25432.4654	24648.53803	25248.84003	19801.11393	24367.33437	19572.75415	23051.95007	21236.36253	24533.72681	16805.91126	22688.47344	19722.17079	19675.12036	23764.65175	21448.97169	24576.76504	22134.45188	23805.98047	22336.7175	23300.32102	22355.83103	20780.4647	19745.89307	22572.49395	24192.93042	23761.74097	23974.00216	20143.44792	23175.14631
1200	1500	17937.36246	20882.24785	17942.18111	23063.82139	15568.2147	20575.06579	16722.12749	15649.97613	21194.55306	19191.99659	19188.89135	20043.00564	20363.6025	20190.49382	19819.53836	19343.46816	17439.08861	21128.69379	22987.67801	22779.37209	21782.96383	18934.85579	21299.1162	17410.73432	19195.06012	18351.05198	20360.21709	14239.49716	19752.01813	17657.40698	16599.93115	19560.90239	18120.11663	19303.48173	19669.18999	18929.08984	18031.55201	20195.45759	18867.70956	18494.63318	17389.22629	20613.79161	19699.98364	21428.61821	20957.99414	17524.11393	20282.15125
1500	1800	16383.34565	19847.63113	16069.70872	19197.57234	14981.26479	18711.67319	15527.56399	14677.31673	18258.46017	16841.61169	17474.38828	17738.40755	18379.27429	17511.26845	17513.24311	17393.892	15663.75718	18851.82082	19559.86272	19666.99514	19339.77213	18564.5944	19375.18536	15120.19489	16984.8552	15487.64521	16967.15306	13301.40115	19406.06233	13983.51565	15310.79346	17038.03243	16098.8999	17990.40963	17322.01101	15607.6084	16252.04338	16971.5351	16434.03379	17259.76415	15453.51669	17294.97581	17804.49927	17907.22533	17449.04645	17711.28776	18577.86947
1800	2100	13648.12184	15262.81253	13429.71338	16810.41939	12854.93726	15847.39237	13210.49717	12885.62967	14742.89549	13917.70198	15026.76867	15479.99425	15229.2077	15133.73251	14387.17766	15470.69406	13731.46379	15063.15891	16532.70661	15864.37002	15913.43288	17252.51758	16684.88292	13443.57585	15836.10839	13531.2678	13917.821	13132.23522	16387.53304	13444.65592	12851.60486	14210.05626	13090.27283	14792.29726	15550.23562	15579.2832	12202.2457	13981.00096	14036.69338	15448.81026	13597.03094	16049.78253	17113.94751	17082.33716	16018.17924	16967.15951	16014.19882
2100	2400	11799.12173	13991.92075	12694.62882	14697.03642	12708.01465	15264.16186	12427.97506	11087.88618	12710.14299	12221.2848	14037.85689	13838.9031	14259.47109	12341.0283	12989.35663	14140.51098	12709.00488	13781.05834	15449.45354	15118.92804	14287.87841	17057.17578	14532.19399	11301.25296	13786.71584	11650.85727	12255.3123	10351.56751	14136.82071	11044.65664	10363.56531	12337.54191	11788.89888	12230.21046	13470.09419	13069.20117	12174.98434	11978.27819	12401.56725	12689.14612	11878.60922	13726.56823	14640.60974	14128.4	13820.32287	15214.56315	14363.2617
2400	2700	12096.97684	13937.44286	11420.50138	11585.21414	11105.64512	12940.88634	10478.13445	10316.74967	11957.29915	11661.82055	11876.80455	13849.03309	12272.15629	11847.4918	12407.54321	12694.02666	11708.58158	13737.99405	15198.98744	13337.3461	12581.5979	15131.47884	13888.63745	11235.40157	11986.47621	9533.34841	11175.99256	9141.60042	13550.18701	8929.55046	11072.04797	11068.87406	10892.99092	11550.12392	11732.49521	12481.42285	10523.52393	9700.68724	11376.81808	11415.29926	10817.64374	12534.81627	11851.61523	12271.41404	11699.95533	13584.67969	12328.07152
2700	3000	9580.8651	10692.84792	9690.48544	10912.79176	9377.46216	11698.18589	9844.12925	8440.55599	9982.07404	9317.4171	9899.24218	10712.25749	10893.8818	10142.53701	10115.75822	12011.87267	10486.23077	12213.3055	11977.41574	12678.53376	11882.85956	12779.00505	12313.66619	8992.87478	10371.33139	9795.98505	11091.82131	9415.95062	11068.84531	9652.62139	9115.33105	10607.75848	9885.53056	10334.97362	10452.17978	10278.36035	11066.18336	10518.47167	9842.23559	11427.7368	10403.09773	10433.5958	10705.60474	10780.72426	11238.98295	13560.28711	11580.45453
3000	3300	8978.65863	9726.93828	10033.92019	10405.15195	9160.57952	11684.93262	9509.113	7855.31255	10494.42877	9879.16632	10579.67541	10789.09158	10865.90694	9499.93176	9557.75433	11092.43351	9623.25054	9540.7274	10269.91588	10513.98897	10537.9013	11276.28239	10213.13815	10414.17923	11094.7641	9879.60029	9831.98208	10469.75357	11520.71418	8137.14936	7640.20911	9813.8935	9723.56275	9664.70175	10407.76962	12577.74219	9136.96649	9977.72142	9101.66054	10062.42397	9440.41983	11034.45839	10928.12195	11010.57887	9896.75467	11253.45085	11007.09901
3300	3600	9201.13544	7945.81027	9198.13448	9166.86275	8051.34813	10246.2995	8175.17702	7516.90267	8966.58493	8061.31182	9618.18038	8091.10503	9082.62137	8843.29842	9686.25362	10923.80301	8875.59095	8822.53443	8544.43457	10526.73331	10624.20028	13394.81722	11209.3675	8083.03926	7839.73963	8595.26085	9235.5856	9335.33133	9589.3338	8909.01864	6926.83936	7299.98048	7469.79084	9025.74719	8668.90146	7234.7168	9078.00842	8840.27125	7970.67192	10797.69342	8408.22043	9254.97429	8513.5069	9388.12823	9157.02245	11746.51042	10916.51573
3600	3900	9312.82537	9984.5127	8406.24259	9218.59973	7404.64661	10282.66664	8621.22919	9144.51584	8472.48021	7736.38239	10294.23858	10126.50738	8189.18865	9085.37031	9222.0015	9348.17618	8318.81839	10087.18126	10136.20354	10020.09052	9942.90534	10896.27035	10451.33524	7510.70123	7725.83151	7810.8131	8737.85537	7305.7109	9788.14355	7342.73088	7988.6275	7512.34361	7419.38809	8561.91514	8896.35591	6314.97656	7520.851	8655.98048	7854.42688	9596.92265	8820.70485	7595.06021	8094.55695	8128.91466	8659.48222	13204.74219	10320.61017
3900	4200	7822.10703	9059.5251	7407.9144	7569.09042	7459.87613	9120.25958	6707.11316	6452.52794	6969.95631	6714.26099	8172.66742	9662.33789	8261.89146	7751.66488	8056.23804	8164.06171	7450.13862	9364.16717	9732.78655	8520.11962	8127.72127	12564.52897	9310.09727	7387.60508	8182.57413	7765.42533	8333.11488	7807.45332	6926.41923	7968.76581	7045.45825	7300.3152	7003.68108	6951.30333	9466.05877	6775.07666	7371.05663	8530.43991	6291.76932	9422.28277	8281.12175	8409.00376	8724.0827	8316.07257	8772.28423	11121.20378	9277.34725
4200	4500	6031.96965	6384.03129	6080.24152	6951.32987	6556.27637	9599.42573	7013.65951	5603.13726	5924.41417	5952.99176	8279.18935	6166.88515	7147.18562	7654.22678	7428.45257	8269.60989	7253.4441	8002.86164	6937.55301	8606.15192	7720.58029	9959.21061	9266.78366	5957.65676	7176.56361	6624.92191	8260.17566	5931.5118	8540.80586	6834.77264	5660.75494	7604.53096	6892.09628	7685.55539	6921.61381	8309.53516	7659.80719	7057.55883	7733.80078	6790.16461	7084.89429	8014.41914	7410.47449	8913.01409	8373.29865	9449.86654	8511.98708
4500	4800	5310.92002	7706.03336	5409.88843	6528.7395	6100.02827	8271.78917	7053.57154	6378.17453	7116.73097	6410.69413	6809.99921	5910.55518	6900.95608	7823.10277	7404.09747	7467.2497	7243.31472	7268.14639	8396.38358	8362.17028	8111.65062	7660.04256	8487.49478	6757.78035	4735.68234	6686.41218	6097.76284	6891.85375	7872.60226	7191.04016	7223.44208	5736.18706	5909.71296	6692.85949	3660.17361	5646.58105	7019.41447	6464.7463	7028.3477	8489.86034	6572.3547	7134.82011	3978.67001	7796.32069	7216.80468	7779.3387	8169.43112
4800	5100	5610.74734	7329.65206	6681.66	6403.3992	8220.35608	9393.80097	7309.19327	4799.50358	6574.55282	6257.90346	6489.19247	6967.74268	5874.15221	7316.63641	6806.79187	6539.72444	6582.63564	5733.68079	7925.16922	6711.7941	6602.85629	5624.63354	7114.20885	6002.63192	7746.20053	5089.42028	5960.40095	4127.62999	9473.37099	4500.55676	6225.87756	6338.1836	5883.35464	7489.56854	6281.27725	8580.30273	4521.04562	5418.84507	6920.34223	8219.80889	6383.18229	8032.16521	8332.18732	7859.27337	6781.65777	9487.83887	7286.36358
5100	5400	5341.3987	5545.96493	5826.96174	6368.56529	4901.19706	7981.22259	5085.24681	8144.98899	6854.87822	6963.10584	9869.61025	7204.54856	5204.94212	5701.12604	7782.60933	4953.55446	6093.93887	5343.07748	6134.71756	6231.64771	6037.7608	9158.10465	5859.39443	6008.50559	6009.49175	6333.48475	6500.333	6660.65684	6046.09078	5943.06854	7106.13623	5705.8534	6463.94937	5405.62374	7232.55899	4630.76367	5545.78119	6680.60332	6345.19028	7351.92802	7694.1383	6245.51713	5803.28467	5502.83869	5469.50204	5889.80208	6348.21553
