time	whole_blood_radioactivity	plasma_radioactivity	metabolite_parent_fraction	AIF
0	0	0	1	0
0.9089514919153191	0.23628877394108194	0.3635996675061324	0.9988594939788505	0.050586586576309385
1.8179029838306382	0.4725775478821639	0.7271993350122647	0.997718987957701	0.10117317315261877
2.726854475745957	0.7088663218232458	1.0907990025183973	0.9965784819365515	0.15175975972892813
3.6358059676612764	0.9451550957643278	1.4543986700245295	0.995437975915402	0.20234634630523754
4.544757459576595	1.1814438697054095	1.817998337530662	0.9942974698942525	0.2529329328815469
5.453708951491914	1.4177326436464917	2.1815980050367947	0.993156963873103	0.30351951945785627
6.362660443407234	1.6540214175875736	2.545197672542927	0.9920164578519535	0.35410610603416565
7.271611935322553	1.8903101915286555	2.908797340049059	0.990875951830804	0.4046926926104751
8.180563427237871	2.1265989654697375	3.272397007555192	0.9897354458096544	0.4552792791867844
9.08951491915319	2.362887739410819	3.635996675061324	0.988594939788505	0.5058658657630938
9.99846641106851	2.5991765133519014	3.9995963425674566	0.9874544337673554	0.5564524523394032
10.907417902983829	2.8354652872929833	4.363196010073589	0.986313927746206	0.6070390389157125
11.816369394899148	3.071754061234065	4.726795677579721	0.9851734217250565	0.6576256254920219
12.725320886814467	3.308042835175147	5.090395345085854	0.9840329157039069	0.7082122120683313
13.634272378729786	3.544331609116229	5.453995012591986	0.9828924096827575	0.7587987986446406
14.543223870645106	3.780620383057311	5.817594680098118	0.9817519036616079	0.8093853852209502
15.452175362560427	649.9077145490695	1000.0738713834729	0.9811787642471504	976.3346616644549
16.361126854475742	1948.4973851861284	2998.3354248005912	0.9811787642471504	2937.2598290798064
17.270078346391063	3247.0870558231923	4996.596978217717	0.9811787642471504	4898.184996495165
18.17902983830638	4545.67672646025	6994.8585316348335	0.9811787642471504	6859.110163910516
19.0879813302217	5844.266397097315	8993.120085051962	0.9811787642471504	8820.035331325877
19.99693282213702	7142.856067734374	10991.381638469078	0.9811787642471504	10780.960498741226
20.90588431405234	8441.445738371438	12989.643191886205	0.9811787642471504	12741.885666156584
21.814835805967657	9740.035409008497	14987.904745303324	0.9811787642471504	14702.810833571937
22.72378729788298	11038.62507964556	16986.166298720447	0.9811787642471504	16663.736000987297
23.632738789798296	12337.214750282621	18984.427852137567	0.9811787642471504	18624.661168402647
24.541690281713617	13635.804420919685	20982.689405554695	0.9811787642471504	20585.586335818007
25.450641773628934	14934.394091556744	22980.95095897181	0.9811787642471504	22546.511503233356
26.359593265544255	16232.983762193804	24979.212512388935	0.9811787642471504	24507.436670648716
27.268544757459573	17531.573432830864	26977.474065806055	0.9811787642471504	26468.361838064066
28.177496249374894	18830.163103467927	28975.735619223175	0.9811787642471504	28429.287005479426
29.08644774129021	20128.752774104985	30973.99717264029	0.9811787642471504	30390.21217289478
29.99539923320553	21427.342444742044	32972.258726057415	0.9811787642471504	32351.13734031013
30.904350725120853	22725.93211537911	34970.52027947454	0.9811787642471504	34312.062507725495
31.81330221703617	24037.30762985691	36985.210142627366	0.9811722242698184	36284.68082733826
32.722253708951484	26209.564584890366	40087.154248442	0.9807253422097195	39044.608755432106
33.63120520086681	28381.82153992384	43152.332302740055	0.9802784601496206	41804.536683525985
34.540156692782126	30554.078494957295	46181.394113612325	0.9798315780895217	44564.46461161983
35.449108184697444	32726.33544999075	49174.97426577668	0.9793846960294227	47324.39253971367
36.35805967661276	34898.5924050242	52133.692563788885	0.9789378139693238	50084.32046780751
37.267011168528086	37070.84936005768	55058.15445985903	0.9784909319092249	52844.248395901384
38.1759626604434	39243.106315091136	57948.95146689327	0.978044049849126	55604.17632399523
39.08491415235872	41415.36327012459	60806.661557353335	0.977597167789027	58364.10425208907
39.99386564427404	43587.62022515805	63631.849548498256	0.977150285728928	61124.03218018292
40.90281713618936	45759.87718019152	66425.06747454772	0.9767034036688291	63883.960108276784
41.81176862810468	47932.13413522498	69186.85494628237	0.9762565216087302	66643.88803637064
42.72072012002	50104.39109025843	71917.73949857288	0.9758096395486313	69403.81596446449
43.629671611935315	52276.64804529189	74618.23692630783	0.9753627574885324	72163.74389255833
44.53862310385063	54448.905000325336	77288.85160916994	0.9749158754284334	74923.67182065218
45.44757459576596	56621.16195535882	79930.07682568999	0.9744689933683345	77683.59974874603
46.356526087681274	58554.490325393694	82283.40041754578	0.9740223480939967	80144.20248508234
47.26547757959659	59339.28211718932	83379.78532550618	0.9735768410556211	81165.94041784533
48.17442907151191	60124.07390898494	84476.00090268669	0.9731313340172456	82187.67835060832
49.083380563427234	60908.86570078057	85572.04718831264	0.9726858269788701	83209.4162833713
49.99233205534255	61693.65749257619	86667.92422159723	0.9722403199404945	84231.1542161343
50.90128354725787	62478.4492843718	87763.63204174157	0.9717948129021189	85252.89214889728
51.810235039173186	63263.24107616743	88859.17068793465	0.9713493058637434	86274.63008166027
52.71918653108851	64048.03286796306	89954.54019935336	0.9709037988253678	87296.36801442328
53.62813802300383	64832.82465975867	91049.74061516246	0.9704582917869923	88318.10594718627
54.537089514919145	65617.61645155429	92144.7719745147	0.9700127847486167	89339.84387994926
55.44604100683446	66402.40824334993	93239.6343165507	0.9695672777102412	90361.58181271225
56.35499249874979	67187.20003514555	94334.32768039894	0.9691217706718657	91383.31974547525
57.263943990665105	67971.99182694116	95428.8521051759	0.96867626363349	92405.05767823824
58.17289548258042	68756.7836187368	96523.20762998602	0.9682307565951145	93426.79561100123
59.08184697449574	69541.5754105324	97617.39429392153	0.967785249556739	94448.53354376422
59.99079846641106	70326.36720232802	98711.41213606276	0.9673397425183634	95470.2714765272
60.89974995832639	71111.15899412366	99805.26119547788	0.9668942354799879	96492.0094092902
61.808701450241706	71891.62111528362	100892.14047487572	0.9664457164742799	97506.68389012764
62.717652942157024	72224.13650780456	101274.9827001586	0.965685580020764	97790.57525852858
63.62660443407234	72556.6519003255	101657.19235159486	0.9649254435672482	98074.46662692953
64.53555592598765	72889.16729284644	102038.77099570204	0.9641653071137324	98358.35799533046
65.44450741790297	73221.68268536737	102419.72019382937	0.9634051706602166	98642.24936373139
66.3534589098183	73554.19807788832	102800.04150217929	0.9626450342067007	98926.14073213233
67.26241040173362	73886.71347040925	103179.73647182835	0.9618848977531849	99210.03210053328
68.17136189364894	74219.22886293018	103558.80664874862	0.9611247612996691	99493.92346893423
69.08031338556425	74551.74425545112	103937.25357382848	0.9603646248461531	99777.81483733516
69.98926487747957	74884.25964797205	104315.07878289353	0.9596044883926373	100061.7062057361
70.89821636939489	75216.775040493	104692.28380672737	0.9588443519391215	100345.59757413705
71.8071678613102	75549.29043301394	105068.87017109228	0.9580842154856057	100629.48894253798
72.71611935322552	75881.80582553489	105444.8393967498	0.9573240790320898	100913.38031093893
73.62507084514084	76214.32121805582	105820.19299948115	0.956563942578574	101197.27167933986
74.53402233705617	76546.83661057676	106194.93249010775	0.9558038061250582	101481.1630477408
75.44297382897149	76879.3520030977	106569.05937451124	0.9550436696715424	101765.05441614173
76.3519253208868	77211.86739561864	106942.57515365393	0.9542835332180265	102048.94578454268
77.26087681280212	77565.10192415818	107450.59816169574	0.9538949564820156	102502.64655469503
78.16982830471744	77938.4800571603	108090.9330269299	0.9538676183602455	103121.43979877238
79.07877979663276	78311.85819016238	108732.72966966602	0.9538402802384753	103740.23304284972
79.98773128854808	78685.23632316447	109375.9931011147	0.9538129421167053	104359.02628692707
80.8966827804634	79058.61445616659	110020.72835541838	0.9537856039949352	104977.81953100441
81.80563427237873	79431.99258916869	110666.94048978263	0.953758265873165	105596.61277508177
82.71458576429404	79805.37072217077	111314.63458460844	0.9537309277513949	106215.4060191591
83.62353725620936	80178.74885517287	111963.81574362543	0.9537035896296249	106834.19926323644
84.53248874812468	80552.12698817498	112614.48909402576	0.9536762515078547	107452.9925073138
85.44144024004	80925.50512117706	113266.65978659918	0.9536489133860846	108071.78575139113
86.35039173195531	81298.88325417918	113920.33299586897	0.9536215752643146	108690.57899546849
87.25934322387063	81672.26138718126	114575.51392022874	0.9535942371425444	109309.37223954582
88.16829471578595	82045.63952018337	115232.20778208031	0.9535668990207743	109928.16548362316
89.07724620770126	82419.01765318547	115890.41982797234	0.9535395608990043	110546.95872770052
89.9861976996166	82792.39578618757	116550.15532874022	0.9535122227772341	111165.75197177786
90.89514919153191	83165.77391918965	117211.41957964661	0.953484884655464	111784.5452158552
91.80410068344723	83539.15205219177	117874.2179005232	0.9534575465336939	112403.33845993254
92.71305217536255	83912.53018519386	118538.55563591336	0.9534302084119238	113022.1317040099
93.62200366727787	84546.25877610549	119412.30353804796	0.9534028702901537	113840.53107607602
94.53095515919318	85300.09437196043	120380.88639063698	0.9533755321683836	114751.0143814433
95.4399066511085	86053.92996781536	121347.92483489336	0.9533481940466135	115661.49768681057
96.34885814302382	86807.7655636703	122313.42256172025	0.9533208559248434	116571.98099217785
97.25780963493915	87561.60115952525	123277.38325026927	0.9532935178030733	117482.46429754514
98.16676112685447	88315.43675538019	124239.81056798712	0.9532661796813032	118392.94760291243
99.07571261876978	89069.27235123512	125200.70817066223	0.9532388415595331	119303.43090827973
99.9846641106851	89823.10794709006	126160.07970247099	0.953211503437763	120213.914213647
100.89361560260042	90576.94354294501	127117.92879602377	0.9531841653159929	121124.39751901428
101.80256709451574	91330.77913879995	128074.25907241089	0.9531568271942228	122034.88082438156
102.71151858643105	92084.61473465488	129029.07414124809	0.9531294890724527	122945.36412974884
103.62047007834637	92838.45033050982	129982.37760072209	0.9531021509506825	123855.84743511611
104.52942157026169	93592.28592636476	130934.17303763567	0.9530748128289125	124766.33074048339
105.43837306217702	94346.1215222197	131884.4640274528	0.9530474747071424	125676.8140458507
106.34732455409234	95099.95711807464	132833.25413434324	0.9530201365853722	126587.29735121797
107.25627604600766	95653.02664238619	133545.70932413125	0.9530112880500232	127270.16265911155
108.16522753792297	96006.91439558742	134024.7268259207	0.9530207831946701	127727.20616591656
109.07417902983829	96360.80214878863	134503.6366864292	0.953030278339317	128184.24967272159
109.98313052175361	96714.68990198986	134982.43894193537	0.9530397734839638	128641.29317952663
110.89208201366893	97068.5776551911	135461.1336287013	0.9530492686286107	129098.33668633163
111.80103350558424	97422.46540839231	135939.72078297278	0.9530587637732576	129555.38019313668
112.70998499749957	97776.35316159354	136418.2004409795	0.9530682589179045	130012.42369994168
113.61893648941489	98130.24091479475	136896.57263893468	0.9530777540625515	130469.46720674672
114.52788798133021	98484.12866799597	137374.83741303545	0.9530872492071983	130926.51071355172
115.43683947324553	98838.0164211972	137852.99479946253	0.9530967443518452	131383.55422035675
116.34579096516084	99191.90417439841	138331.04483438047	0.9531062394964921	131840.59772716177
117.25474245707616	99545.79192759964	138808.98755393762	0.953115734641139	132297.6412339668
118.16369394899148	99899.67968080085	139286.822994266	0.9531252297857858	132754.6847407718
119.0726454409068	100253.56743400208	139764.5511914815	0.9531347249304327	133211.72824757683
119.98159693282211	100607.4551872033	140242.1721816838	0.9531442200750797	133668.77175438186
120.89054842473746	100961.34294040453	140719.68600095634	0.9531537152197266	134125.8152611869
121.79949991665278	101315.23069360576	141197.09268536634	0.9531632103643735	134582.8587679919
122.7084514085681	101669.11844680697	141674.39227096486	0.9531727055090203	135039.90227479694
123.61740290048341	100112.18866175303	139452.23349328985	0.9531892110361957	132940.0560604192
124.52635439239873	97652.93697097832	135958.3232380732	0.9532090269902413	129632.80120563197
125.43530588431405	95193.68528020363	132467.91842469593	0.9532288429442871	126325.54635084471
126.34425737622936	92734.43358942891	128981.013780286	0.9532486588983328	123018.29149605746
127.25320886814468	90275.18189865422	125497.60404254122	0.9532684748523784	119711.0366412702
128.16216036006	87815.93020787949	122017.68395970289	0.9532882908064241	116403.7817864829
129.0711118519753	85356.678517104825	118541.24829052955	0.9533081067604698	113096.52693169568
129.98006334389063	82897.42682633008	115068.29180427021	0.9533279227145155	109789.27207690838
130.88901483580594	80438.17513555542	111598.80928063874	0.9533477386685612	106482.01722212117
131.79796632772127	77978.92344478068	108132.79550978707	0.9533675546226069	103174.76236733387
132.7069178196366	75519.67175400595	104670.24529227968	0.9533873705766526	99867.50751254655
133.6158693115519	73060.42006323127	101211.15343906733	0.9534071865306982	96560.25265775935
134.52482080346724	70601.16837245654	97755.51477146092	0.953427002484744	93252.99780297205
135.43377229538254	68141.91668168189	94303.32412110623	0.9534468184387896	89945.74294818485
136.34272378729787	65682.66499090714	90854.57632995742	0.9534666343928353	86638.48809339754
137.25167527921317	63840.16702427741	88312.87997053035	0.953530940532799	84198.57035855766
138.1606267711285	62622.07074648533	86685.25322215163	0.9536402885527487	82636.74503124645
139.0695782630438	61403.97446869329	85055.46738968653	0.9537496365726985	81074.91970393529
139.97852975495914	60185.87819090121	83423.51817417202	0.9538589845926483	79513.09437662408
140.88748124687447	58967.78191310914	81789.40126522473	0.9539683326125981	77951.26904931289
141.79643273878978	57749.685635317095	80153.11234100285	0.9540776806325478	76389.44372200171
142.7053842307051	56531.58935752502	78514.64706816788	0.9541870286524975	74827.61839469052
143.6143357226204	55313.49307973298	76874.00110184666	0.9542963766724473	73265.79306737936
144.52328721453574	54095.3968019409	75231.17008559273	0.954405724692397	71703.96774006815
145.43223870645105	52877.30052414886	73586.14965134801	0.9545150727123468	70142.14241275699
146.34119019836638	51659.20424635678	71938.93541940372	0.9546244207322966	68580.31708544579
147.25014169028168	50441.107968564735	70289.52299836198	0.9547337687522464	67018.49175813462
148.159093182197	49223.01169077266	68637.90798509633	0.9548431167721961	65456.66643082342
149.06804467411234	48004.91541298059	66984.08596471291	0.9549524647921458	63894.84110351222
149.97699616602765	46786.81913518855	65328.05251051094	0.9550618128120956	62333.01577620106
150.88594765794298	45568.72285739647	63669.80318394316	0.9551711608320453	60771.19044888985
151.79489914985828	44350.626579604424	62009.33353457642	0.9552805088519951	59209.36512157869
152.7038506417736	43132.53030181235	60346.639100051565	0.9553898568719449	57647.53979426749
153.61280213368892	42496.729682887955	59293.78666045308	0.9553127493381682	56704.97350709902
154.52175362560425	42142.33553465185	58541.91791585908	0.9551455332856086	56061.67701230245
155.43070511751958	41787.941386415754	57796.603204621155	0.9549783172330488	55418.380517505866
156.33965660943488	41433.547238179664	57057.75720145092	0.9548111011804892	54775.084022709314
157.24860810135021	41079.15308994356	56325.296055764586	0.9546438851279294	54131.78752791273
158.15755959326552	40724.75894170748	55599.13735996039	0.9544766690753698	53488.491033116174
159.06651108518085	40370.36479347137	54879.20011851104	0.9543094530228101	52845.1945383196
159.97546257709615	40015.970645235284	54165.40471784775	0.9541422369702504	52201.89804352305
160.88441406901148	39661.57649699919	53457.67289701111	0.9539750209176907	51558.601548726474
161.7933655609268	39307.1823487631	52755.92771904732	0.953807804865131	50915.305053929915
162.70231705284212	38952.78820052699	52060.09354312681	0.9536405888125713	50272.00855913334
163.61126854475745	38598.394052290896	51370.09599736479	0.9534733727600117	49628.71206433676
164.52022003667275	38243.999904054814	50685.861952322615	0.9533061567074519	48985.41556954021
165.42917152858809	37889.60575581872	50007.31949517059	0.9531389406548922	48342.11907474363
166.3381230205034	37535.21160758263	49334.39790449281	0.9529717246023325	47698.822579947075
167.24707451241872	37180.81745934652	48667.02762571544	0.9528045085497728	47055.52608515049
168.15602600433402	36826.42331111043	48005.14024714093	0.9526372924972132	46412.22959035395
169.06497749624936	36472.029162874336	47348.668476570005	0.9524700764446534	45768.93309555737
169.97392898816466	36117.63501463825	46697.5461184957	0.9523028603920938	45125.63660076081
170.88288048008	35763.24086640215	46051.70805185217	0.952135644339534	44482.340105964235
171.79183197199532	35408.846718166045	45411.09020830344	0.9519684282869744	43839.04361116765
172.70078346391062	35054.452569929956	44775.62955105628	0.9518012122344147	43195.747116371094
173.60973495582596	34700.05842169386	44145.26405418274	0.951633996181855	42552.45062157452
174.51868644774126	34345.66427345777	43519.93268243822	0.9514667801292953	41909.15412677796
175.4276379396566	33991.270125221665	42899.57537156092	0.9512995640767355	41265.85763198139
176.3365894315719	33636.875976985575	42284.13300903975	0.9511323480241759	40622.56113718483
177.24554092348723	33282.481828749485	41673.547415337416	0.9509651319716163	39979.26464238826
178.15449241540253	32928.087680513396	41067.76132555635	0.9507979159190565	39335.9681475917
179.06344390731786	32573.693532277288	40466.71837153522	0.9506306998664968	38692.67165279513
179.9723953992332	32219.299384041195	39870.363064364516	0.9504634838139371	38049.375157998555
180.8813468911485	31864.905235805105	39278.6407773094	0.9502962677613774	37406.078663201995
181.79029838306383	31510.511087569008	38691.4977291292	0.9501290517088178	36762.782168405414
182.69924987497913	31338.87026553904	38593.591418821394	0.950124248950807	36612.6358646426
183.60820136689446	31169.201089893457	38500.38274655766	0.9501211983993998	36467.80994443337
184.51715285880977	30999.531914247877	38406.61028730003	0.9501181478479925	36322.984024224155
185.4261043507251	30829.86273860229	38312.26891030289	0.9501150972965853	36178.158104014925
186.33505584264043	30660.193562956705	38217.35342237473	0.9501120467451779	36033.3321838057
187.24400733455573	30490.52438731113	38121.85856692517	0.9501089961937706	35888.506263596486
188.15295882647106	30320.855211665545	38025.77902299453	0.9501059456423634	35743.680343387256
189.06191031838637	30151.186036019964	37929.10940426556	0.9501028950909561	35598.85442317804
189.9708618103017	29981.51686037438	37831.8442580568	0.9500998445395489	35454.02850296881
190.879813302217	29811.847684728804	37733.97806429741	0.9500967939881416	35309.202582759586
191.78876479413233	29642.178509083216	37635.50523448277	0.9500937434367344	35164.37666255037
192.69771628604764	29472.50933343764	37536.420110610816	0.9500906928853271	35019.55074234115
193.60666777796297	29302.840157792056	37436.71696409824	0.9500876423339197	34874.724822131924
194.5156192698783	29133.170982146472	37336.38999467652	0.9500845917825125	34729.898901922694
195.4245707617936	28963.501806500895	37235.433329267085	0.9500815412311052	34585.07298171348
196.33352225370894	28793.832630855304	37133.84102083524	0.950078490679698	34440.247061504255
197.24247374562424	28624.163455209728	37031.607047222424	0.9500754401282907	34295.42114129503
198.15142523753957	28454.494279564144	36928.725309956135	0.9500723895768834	34150.59522108581
199.06037672945487	28284.825103918563	36825.189633037386	0.9500693390254762	34005.769300876585
199.9693282213702	28115.155928272983	36720.99376170475	0.9500662884740688	33860.94338066736
200.8782797132855	27945.486752627403	36616.13136117479	0.9500632379226616	33716.11746045815
201.78723120520084	27775.81757698182	36510.596015358235	0.9500601873712543	33571.291540248916
202.69618269711617	27606.148401336235	36404.38122555135	0.950057136819847	33426.46562003969
203.60513418903147	27436.479225690655	36297.480409101954	0.9500540862684398	33281.63969983047
204.5140856809468	27266.810050045075	36189.88689804946	0.9500510357170325	33136.81377962125
205.4230371728621	27097.140874399494	36081.593937738486	0.9500479851656253	32991.98785941203
206.33198866477744	26927.47169875391	35972.59468540523	0.9500449346142179	32847.1619392028
207.24094015669274	26757.80252310833	35862.88220873623	0.9500418840628106	32702.336018993585
208.14989164860808	26588.133347462743	35752.449484398545	0.9500388335114034	32557.510098784354
209.05884314052338	26418.464171817166	35641.289396541135	0.9500357829599961	32412.684178575135
209.9677946324387	26248.794996171582	35529.3947352663	0.9500327324085889	32267.85825836591
210.87674612435404	26079.125820526	35416.7581950709	0.9500296818571816	32123.032338156692
211.78569761626935	25909.45664488042	35303.37237325634	0.9500266313057744	31978.20641794747
212.69464910818468	25739.787469234834	35189.22976830675	0.950023580754367	31833.380497738242
213.60360060009998	25570.118293589258	35074.32277823467	0.9500205302029597	31688.554577529023
214.5125520920153	25400.449117943674	34958.64369889324	0.9500174796515525	31543.728657319796
215.42150358393062	25230.779942298093	34842.184722254366	0.9500144291001452	31398.902737110577
216.33045507584595	25061.110766652513	34724.937934651876	0.950011378548738	31254.076816901354
217.23940656776128	24891.441591006922	34606.89531498898	0.9500083279973307	31109.250896692127
218.14835805967658	24721.772415361345	34488.048732908996	0.9500052774459234	30964.424976482907
219.0573095515919	24552.10323971576	34368.38994692866	0.9500022268945162	30819.59905627368
219.96626104350722	24382.43406407018	34247.91060253303	0.9499991763431088	30674.77313606446
220.87521253542255	24212.764888424597	34126.60223023097	0.9499961257917016	30529.947215855238
221.78416402733785	24043.09571277902	34004.45624357049	0.9499930752402943	30385.121295646015
222.69311551925318	23873.426537133437	33881.46393711268	0.949990024688887	30240.29537543679
223.6020670111685	23703.75736148786	33757.61648436357	0.9499869741374798	30095.469455227572
224.51101850308382	23534.088185842273	33632.90493566252	0.9499839235860725	29950.643535018346
225.41996999499915	23364.419010196692	33507.32021602635	0.9499808730346653	29805.817614809122
226.32892148691445	23194.749834551112	33380.85312294804	0.9499778224832579	29660.9916945999
227.23787297882978	23025.08065890553	33253.49432414881	0.9499747719318506	29516.16577439068
228.1468244707451	22855.411483259944	33125.234355282504	0.9499717213804434	29371.339854181457
229.05577596266042	22685.74230761436	32996.063617591106	0.9499686708290361	29226.51393397223
229.96472745457572	22516.073131968784	32865.97237551009	0.9499656202776289	29081.688013763014
230.87367894649105	22346.4039563232	32734.950754222402	0.9499625697262216	28936.862093553784
231.78263043840636	22176.73478067762	32602.988737159776	0.9499595191748144	28792.036173344568
232.6915819303217	22007.06560503204	32470.076163450096	0.949956468623407	28647.21025313534
233.60053342223702	21837.396429386452	32336.202725309293	0.9499534180719997	28502.384332926114
234.50948491415232	21667.727253740875	32201.357965376596	0.9499503675205925	28357.5584127169
235.41843640606766	21498.05807809529	32065.531273991466	0.9499473169691852	28212.73249250767
236.32738789798296	21328.38890244971	31928.711886410914	0.949944266417778	28067.906572298452
237.2363393898983	21158.719726804127	31790.888879965492	0.9499412158663707	27923.080652089226
238.1452908818136	20989.050551158547	31652.05117115256	0.9499381653149634	27778.254731880003
239.05424237372893	20819.381375512963	31512.187512665023	0.9499351147635561	27633.428811670783
239.96319386564423	20649.712199867387	31371.286490354047	0.9499320642121488	27488.60289146156
240.87214535755953	20480.0430242218	31229.33652012386	0.9499290136607416	27343.77697125234
241.78109684947492	20310.373848576215	31086.325844757	0.9499259631093343	27198.95105104311
242.6900483413902	20140.70467293064	30942.242530668096	0.949922912557927	27054.125130833887
243.59899983330556	19971.035497285055	30797.074464584344	0.9499198620065198	26909.299210624667
244.5079513252208	19801.366321639478	30650.80935015073	0.9499168114551125	26764.473290415444
245.4169028171362	19631.69714599389	30503.43470445793	0.9499137609037053	26619.647370206225
246.32585430905146	19462.02797034831	30354.93785449107	0.9499107103522979	26474.821449997
247.23480580096683	19292.35879470273	30205.30593349683	0.9499076598008906	26329.995529787775
248.14375729288207	19122.68961905715	30054.525877267035	0.9499046092494834	26185.16960957856
249.05270878479746	18953.020443411566	29902.58442033642	0.9499015586980761	26040.343689369332
249.96166027671276	18783.35126776598	29749.46809209207	0.9498985081466689	25895.51776916011
250.8706117686281	18613.682092120398	29595.163212792362	0.9498954575952616	25750.691848950886
251.7795632605434	18444.012916474818	29439.655889492784	0.9498924070438544	25605.865928741663
252.68851475245873	18274.343740829238	29282.932011876113	0.949889356492447	25461.040008532444
253.59746624437403	18104.674565183654	29124.97724798445	0.9498863059410397	25316.214088323213
254.50641773628936	17935.005389538077	28965.7770398502	0.9498832553896325	25171.388168113997
255.41536922820467	17765.336213892493	28805.31659902327	0.9498802048382252	25026.56224790477
256.32432072012	17595.66703824691	28643.580901991798	0.949877154286818	24881.736327695548
257.23327221203533	17425.99786260132	28480.554685493033	0.9498741037354107	24736.91040748632
258.1422237039506	17256.32868695575	28316.22244171174	0.9498710531840034	24592.084487277105
259.05117519586594	17086.65951131017	28150.56841336252	0.9498680026325961	24447.258567067885
259.96012668778127	16916.99033566458	27983.576588653188	0.9498649520811888	24302.432646858655
260.8690781796966	16747.321160018997	27815.230696125545	0.9498619015297816	24157.606726649432
261.7780296716119	16577.651984373424	27645.514199370107	0.9498588509783743	24012.780806440216
262.6869811635272	16407.982808727837	27474.41029161122	0.949855800426967	23867.95488623099
263.59593265544254	16238.313633082256	27301.901890158962	0.9498527498755598	23723.12896602177
264.50488414735787	16068.644457436669	27127.971630723627	0.9498496993241525	23578.30304581254
265.4138356392732	15898.975281791087	26952.60186158927	0.9498466487727452	23433.477125603316
266.3227871311885	15729.306106145514	26775.774637641847	0.9498435982213379	23288.651205394104
267.2317386231038	15559.63693049993	26597.47171424785	0.9498405476699306	23143.825285184874
268.14069011501914	15389.967754854342	26417.674540979126	0.9498374971185234	22998.999364975654
269.0496416069345	15220.298579208762	26236.36425517921	0.9498344465671161	22854.173444766424
269.95859309884975	15050.629403563189	26053.521675366523	0.9498313960157089	22709.347524557208
270.8675445907651	14880.960227917605	25869.127294469603	0.9498283454643016	22564.52160434799
271.7764960826804	14711.291052272021	25683.16127288947	0.9498252949128942	22419.695684138762
272.68544757459574	14541.621876626436	25495.60343138369	0.949822244361487	22274.86976392954
273.5943990665111	14371.952700980852	25306.43324376702	0.9498191938100797	22130.043843720312
274.50335055842635	14202.283525335279	25115.629829422953	0.9498161432586725	21985.217923511093
275.4123020503417	14032.614349689695	24923.17194562045	0.9498130927072652	21840.392003301873
276.321253542257	13862.945174044107	24729.037979630008	0.949810042155858	21695.566083092643
277.23020503417234	13693.275998398527	24533.20594063277	0.9498069916044507	21550.740162883423
278.1391565260876	13523.606822752952	24335.653451416438	0.9498039410530434	21405.914242674207
279.04810801800295	13353.937647107368	24136.357739851275	0.9498008905016361	21261.08832246498
279.9570595099183	13184.26847146178	23935.295630139604	0.9497978399502288	21116.262402255757
280.8660110018336	13014.5992958162	23732.443533831523	0.9497947893988216	20971.43648204653
281.77496249374894	12844.930120170617	23527.777440599482	0.9497917388474143	20826.610561837308
282.6839139856642	12675.260944525044	23321.2729087645	0.949788688296007	20681.78464162809
283.59286547757955	12505.591768879454	23112.90505556565	0.9497856377445998	20536.958721418865
284.5018169694949	12335.922593233874	22902.648547165238	0.9497825871931925	20392.132801209642
285.4107684614102	12166.25341758829	22690.477588380723	0.9497795366417852	20247.306881000415
286.3197199533255	11996.584241942717	22476.36591213501	0.9497764860903779	20102.480960791203
287.2286714452408	11826.91506629713	22260.28676861582	0.9497734355389706	19957.655040581976
288.13762293715615	11657.24589065155	22042.212914135027	0.9497703849875634	19812.82912037275
289.0465744290715	11487.576715005964	21822.116599677764	0.9497673344361561	19668.003200163526
289.9555259209868	11317.90753936038	21599.969559131663	0.9497642838847489	19523.177279954303
290.8644774129021	11148.238363714807	21375.74299718546	0.9497612333333416	19378.351359745087
291.7734289048174	10978.56918806922	21149.407576886115	0.9497581827819342	19233.52543953586
292.68238039673275	10808.900012423639	20920.93340684333	0.949755132230527	19088.699519326634
