frame_start	frame_end	Left-AV	Left-CeM	Left-CL	Left-CM	Left-LD	Left-LGN	Left-LP	Left-L-Sg	Left-MDl	Left-MDm	Left-MGN	Left-MV(Re)	Left-Pf	Left-PuA	Left-PuI	Left-PuL	Left-PuM	Left-VA	Left-VAmc	Left-VLa	Left-VLp	Left-VM	Left-VPL	Right-AV	Right-CeM	Right-CL	Right-CM	Right-LD	Right-LGN	Right-LP	Right-L-Sg	Right-MDl	Right-MDm	Right-MGN	Right-MV(Re)	Right-Pf	Right-PuA	Right-PuI	Right-PuL	Right-PuM	Right-VA	Right-VAmc	Right-VLa	Right-VLp	Right-VPL
0	30	317.06222	457.68425	712.95465	529.78706	2181.05804	1044.40931	1414.32959	947.87055	527.28154	647.6963	919.95261	514.45943	512.11879	706.46376	975.71645	749.04873	873.94678	381.11109	590.86883	551.72883	584.60698	769.50287	595.63512	363.23012	429.19049	789.38162	769.52321	1115.11199	1076.03832	776.56565	549.22859	849.27561	619.21918	1060.41792	495.4295	655.13802	1134.15281	927.32149	784.92441	853.07974	389.6443	407.72773	791.87704	908.92264	903.48665
30	60	7740.85503	5863.14622	9589.46088	8841.74368	10091.80957	7679.9512	9247.9869	7361.02454	10130.85466	9440.97224	10170.46524	6539.1728	9403.79454	9307.29334	7061.01188	7749.66645	7881.30642	6319.05677	5943.6981	7041.32152	8190.06101	5582.96436	7621.8178	6548.01882	5808.03406	9616.77989	6942.46557	11549.52429	7712.44659	11001.47381	8715.49116	9358.00804	8235.6625	9869.46876	7135.61202	5486.69318	10741.96639	9102.53024	8838.46259	8775.14718	5957.79145	6257.33029	8198.55694	9442.28148	8170.52426
60	90	16159.24013	16607.45018	19984.27072	20098.11065	19216.31974	19384.73341	22400.47051	19577.47826	23147.76052	21112.70089	18875.14858	15660.96539	17904.5106	22023.55047	17747.02279	22009.5173	18641.90187	14810.30154	17253.47754	15768.67652	18014.3467	10436.55371	17493.29316	17412.88653	15575.58905	22759.89371	19915.22099	25956.81812	17926.96323	29258.02326	17514.78798	21725.83694	20290.30747	17697.64736	13453.90763	19250.38969	23233.27917	18046.13108	21629.94924	18568.70537	12738.60534	15757.4195	15780.25456	18952.15709	18300.7234
90	120	25537.45682	21580.20673	31791.79731	29204.82433	35064.14867	26001.45101	38924.83227	26308.04204	37551.13395	32050.83416	25902.4131	23458.09397	27297.65262	36313.19766	28193.54385	31329.21017	28722.62746	19320.06183	21592.71345	24787.43845	29519.28437	20929.16992	28048.47657	26540.29241	22109.75543	32538.58152	28671.56355	33485.09045	25289.73726	40956.84697	24893.03754	34421.99975	30990.94792	25249.71733	22982.14307	29160.82271	35340.78483	25032.5461	31698.65086	30131.06719	20192.92165	21860.16825	25136.23848	30035.50116	26925.87105
120	150	36573.07106	27472.68875	42941.20638	41181.39857	39448.23357	30519.9345	44224.73268	40370.27344	46161.50264	40954.98351	33990.72411	28983.44076	39794.05269	45909.6488	33142.16734	43398.28095	37191.28443	25829.68502	26109.02818	30495.56816	38173.87841	27120.70117	37870.52253	28582.26439	27230.2359	44441.50863	39030.13472	46464.05908	32542.02861	49932.48817	34834.64822	44064.8545	39847.82496	34951.22017	27277.28206	36763.2472	47773.11968	33591.125	43152.71644	39570.93404	23437.91589	26707.29185	31962.9183	39977.70147	38657.71718
150	180	34642.63334	31135.48505	42490.60438	39453.57169	38157.87431	31442.86141	47841.33003	33535.0368	46987.61112	39623.7482	30073.05404	33327.86437	34988.35778	52056.24155	33257.63102	38958.51431	38563.37397	25118.60698	31359.20173	33560.48962	39989.25746	26424.74219	38514.58531	33221.17435	29671.08067	42003.46443	36977.79307	41608.99487	31884.30703	50366.61947	32812.85655	42758.82494	39234.9216	33034.74712	29403.64323	36911.30842	49875.93349	35460.45958	43725.87087	40137.17916	27434.50184	28565.32003	33625.66108	37068.49198	36799.84155
180	240	35461.6161	31310.38951	42437.91927	42013.71222	35887.1057	32201.43433	50864.09838	32733.64206	46317.05192	40041.09311	29407.23674	32041.64931	40962.90202	49020.73563	32999.3027	43038.91616	38758.66963	27872.19147	29941.37919	33428.69379	40798.71994	28271.00586	38921.8295	33059.97856	30013.08428	48315.06332	40713.9713	46874.76807	32290.40761	52712.8444	34768.75	47158.43914	42322.26687	32587.90642	28670.07503	39073.78382	49205.25626	36818.01237	42182.44347	38837.82532	25773.60934	28672.31557	32595.30609	39716.44997	38044.83437
240	300	33419.58691	30515.5457	41146.69368	37836.76052	34369.99299	29410.7264	45254.06682	31667.90471	43063.49792	38818.06878	29291.93628	32939.01649	37769.59877	41963.02144	31358.64668	40667.27209	34110.32839	26492.91093	30322.0173	33872.66786	38207.17622	25255.59766	36907.02098	30091.24163	31487.62738	40725.85012	35386.4953	41901.85925	28233.88287	51363.95638	30851.66515	44349.2483	39325.39879	29582.01431	29429.90137	34239.61222	46341.73243	32070.01243	41171.38098	36730.84117	26476.72775	31775.59487	32580.31057	39027.94273	36829.86197
300	360	33238.64897	28695.0292	39044.29926	37090.87283	30597.88224	29021.41047	46160.83117	34062.33172	41699.48379	37115.71765	27487.80432	28067.76042	36824.61958	43686.76269	31801.54511	40972.5006	34185.2767	25653.49809	27905.54743	31071.38638	36448.11664	23937.57812	36626.08975	31336.74581	28187.74633	43278.99363	37625.97841	41614.54846	28630.07474	45266.81	30478.727	42251.98938	38117.00381	28239.95825	25852.87207	37402.16957	44500.89762	31565.93201	37710.21534	35189.18723	24156.01493	27769.80692	32042.62891	37434.53924	36087.96227
360	480	30766.10108	27957.67807	35669.55219	35155.35761	29239.46909	27766.77948	41933.83977	30927.02097	41078.47824	36135.89818	30473.71151	28569.53494	33673.88855	41013.57801	31236.73775	37584.07361	33050.78809	27121.09083	27208.83454	31570.16266	36560.07507	26037.96289	35535.22404	30561.89375	27893.05916	38423.32627	38255.54646	35135.97144	28362.96779	42747.15299	30914.15972	41020.66835	36326.83757	29386.64666	26217.60514	36220.90075	41330.35142	32413.13308	37713.79605	32714.21021	26840.27337	27539.46708	33571.47747	36666.02466	34755.12929
480	600	28504.68848	27953.19703	31465.89073	37265.34625	26658.44692	26474.21361	36421.00062	30308.19326	38631.10126	32664.50332	27964.49529	27854.52214	34140.62269	39472.19929	30473.73225	36919.12143	31342.47463	27013.28903	27467.52148	32108.78611	36406.73716	27531.14648	35757.28908	27211.94546	28067.94895	34790.24496	36592.54736	34715.80103	27400.59278	40670.04615	28220.81207	39928.50575	34216.62503	28461.26509	27499.15674	33045.13912	40325.58568	30326.47415	36796.12032	30254.98125	25744.14405	28914.59794	32036.22382	36630.90253	34829.88612
600	900	28539.41466	29039.13089	30697.6148	34919.71953	24519.22243	26975.99875	33704.42241	27497.76974	36136.50323	31211.70049	27700.64177	26401.18924	30935.96142	35125.40569	29398.36068	33904.26802	27687.28673	26878.92215	27939.29883	31912.60989	34380.43351	27103.54492	34251.93322	26862.73882	28415.23861	32022.07566	34955.91901	29404.53931	26724.04839	34950.27789	27817.55013	35105.72453	31015.85028	28101.36311	25086.23698	32193.71644	35930.99881	29082.16551	35005.04824	28760.1218	25500.68328	28347.36412	31051.1314	34084.67174	33347.76916
900	1200	25380.42903	27298.14554	25440.61404	30153.32492	19901.67084	25118.17114	26724.78332	24820.31558	31160.21866	26369.58507	26050.16583	25174.99154	26290.05533	30340.74235	25731.51817	28868.17333	23731.57104	26104.77587	26940.11133	29151.96372	30899.94849	24990.41797	30594.92323	25047.02847	27211.82637	27056.31178	32173.20051	24360.47632	26162.63439	28450.20871	24790.79557	31238.58639	26916.82794	27594.11011	24688.60498	28369.97834	32609.64216	28081.09882	29902.06921	25496.93995	26020.14752	28145.19308	29447.69746	30704.8755	31223.29365
1200	1500	22477.53924	23913.13136	22468.47146	27622.11	17742.25776	23726.29829	22565.93411	22941.1178	27925.94432	23873.04626	24520.6251	21317.18989	24018.61049	26116.75856	24551.07911	25349.17641	21453.25471	24815.01722	23591.69029	26892.76746	27364.32721	26369.73242	27817.39225	22431.36235	25186.04363	24506.48016	26705.56461	21401.72064	25319.52613	23020.20584	20112.83919	27909.08097	24000.07314	25439.15674	22169.52295	24479.94935	26701.68313	24629.71741	26525.31037	21772.90626	23735.42718	25878.80804	26727.13105	27463.19958	27992.88577
1500	1800	20797.19703	21748.97121	19660.8336	23877.4878	14954.56101	21338.87672	20105.56874	19860.05006	23767.0857	20017.76827	22744.03849	20598.6148	21224.88293	21832.10472	21513.51899	21447.21468	17764.38199	22202.23468	22682.25391	23899.83987	24416.18336	21745.24023	24385.37422	20156.5291	21657.86984	20798.08871	24603.72416	17564.2099	22494.99152	19555.13753	17706.82758	24961.2693	21415.90019	22332.21191	19920.36882	21260.86182	22849.24057	21738.33205	23336.5147	19057.32907	22017.89094	22318.03571	24433.73845	24842.87437	24578.41336
1800	2100	17980.71473	19163.58065	16536.02637	19712.37141	12782.48633	19979.53265	15223.58516	16342.87526	19020.78708	16735.70664	19842.75626	18512.02908	17446.42712	18302.59439	18263.34743	20486.9581	16303.63347	19323.4338	20276.98521	20512.45621	20228.07876	20891.41016	21576.43029	17583.44069	19639.21127	16893.5348	21493.21902	14527.97217	20964.96106	15971.99927	17131.83268	19681.7972	17049.59349	20073.46506	17730.99959	17971.24769	19640.45041	20384.44996	19985.80058	16930.3511	20097.84617	21054.1822	21799.7985	21286.82914	21869.94692
2100	2400	15832.89424	17583.94156	14231.66385	17572.3856	9795.2527	18314.36246	12248.94508	14021.21464	16969.68278	14851.72961	17566.11802	16718.49284	14699.33861	16199.44149	16261.45142	15780.95369	13697.84777	17913.37088	18220.25893	18194.43785	17990.26335	18118.11523	18372.21017	15420.11382	18319.44776	15033.4633	17509.31855	13866.63922	18946.45956	14960.30367	13373.3061	17308.3099	15100.44334	19215.18212	16909.73022	15028.06361	17332.36049	17395.25036	17389.01051	14188.93887	17843.3616	19566.01702	18973.10475	18803.311	19508.16841
2400	2700	12535.97226	15349.28413	11756.912	15255.70653	9632.87086	17083.1627	10825.04353	11881.9502	13700.46701	12918.00372	14473.2899	14593.90299	12298.53751	13806.23881	14615.48275	13545.29105	12634.1793	14952.19397	16383.53488	14663.64147	14928.40388	17135.55469	15984.26241	13251.25916	15292.80262	13474.73098	15853.17876	12359.32129	17714.68542	12047.27535	12139.01606	15036.13682	13417.48888	16722.12423	13959.90161	11646.76776	15598.87402	14684.79924	16290.68106	13315.44954	15833.42478	16126.78376	16650.0973	16997.37993	17696.57939
2700	3000	12254.28066	14697.08594	10990.59999	12999.8417	8045.32364	15368.54418	9077.52645	10857.85516	12214.78798	11148.66186	14265.93671	14382.70822	11211.70063	11554.57335	12982.97806	11685.3667	10610.56835	14180.64988	16032.37416	14280.23013	12877.73618	18209.80078	14896.60999	11876.69574	13756.20571	11067.49409	13181.59799	9638.08508	17624.64112	10852.87512	11054.40072	12053.01187	11180.5515	15293.31754	13321.16227	12148.26534	13240.81286	13791.34853	13246.95027	11381.39767	13986.31801	14557.9435	14355.42111	13915.46486	15555.61321
3000	3300	10004.89744	11971.74759	9289.71419	13593.16325	8337.50465	13896.52354	7930.49144	11489.37747	11390.47379	9801.01377	12706.9487	10669.95898	10691.50351	11361.25413	12477.1886	11164.55644	10232.67131	12905.58382	12531.61049	12796.48673	12198.72985	15059.36035	13027.94925	10528.45493	12384.14751	9902.06687	12017.36	8778.76654	14102.90135	8348.00064	10088.46701	11723.01036	10033.56184	12791.24248	10873.26864	11048.14826	10954.98928	12506.0763	11468.72366	10570.24411	13129.98276	13375.88895	12749.5695	12193.86211	13383.36011
3300	3600	10209.73998	11916.77671	8605.0195	9436.38244	8285.06391	13831.89345	6985.86684	8725.62628	10544.52099	9707.1006	10700.24124	10142.57086	7904.04519	9206.88004	10501.34599	9535.14458	9515.13097	11658.6623	11663.64537	11074.22261	10440.11698	13686.62109	10669.661	9027.21108	10938.07412	7677.59249	8718.0819	6723.62228	12221.17301	7338.77735	8545.23893	8708.61131	8299.0688	11747.21025	9631.08679	7755.23976	9364.00353	11031.38102	9826.67963	9302.10235	11061.60686	10943.16713	10756.86907	9916.26096	10496.75063
3600	3900	8351.40412	10481.04777	7933.65137	10371.45274	6888.30173	10574.48541	6235.78891	8424.71944	8441.10109	7890.11122	10236.9691	10397.40647	9092.23947	8501.64026	9922.58588	8901.69287	8541.33653	10126.24913	11347.83733	10261.90095	9723.33718	12840.5166	10516.55158	8986.28427	8704.45792	7975.14972	9289.09081	7704.93204	12387.65673	6936.42228	8039.13053	8157.25126	7820.94294	9698.87561	8846.95626	7218.90577	10220.93096	10135.55546	10362.79998	8939.00454	10234.07223	8557.64565	9334.4471	9201.11066	11480.49084
3900	4200	7826.31877	9468.27193	7566.96479	7920.14313	5744.03326	11742.84934	5415.73716	8269.114	8213.08634	7899.59598	9603.9884	10108.065	8072.43048	7118.12503	9436.35866	7127.58805	8123.67016	8739.87705	11146.04939	9110.4754	8197.26608	11566.86719	8330.06894	7927.3861	8448.83564	8903.94305	6895.42835	8385.28568	12994.86582	8098.16874	7260.71061	7935.83213	7407.08382	9707.98633	9307.65694	7408.79932	7301.01899	8734.53623	8110.36869	7478.50886	8500.60996	9041.59473	8905.46703	8568.41147	9618.57726
4200	4500	7961.77356	7243.34357	7291.506	7174.14163	5989.62109	10981.15078	4431.07951	7133.82481	6767.03056	6404.76697	10103.79594	6824.90408	6991.68014	6696.63525	8584.27579	6367.1549	7042.5769	9763.91159	7372.97238	8121.27846	6936.25532	10770.42969	7954.1957	7184.9971	7163.97295	6879.59673	6973.50966	4330.80109	10389.60134	4121.87898	6401.05463	6547.95511	6292.74272	9260.33527	7361.92794	7388.42412	7221.30979	8724.18003	6861.65128	6785.20441	7546.64006	7004.94071	7913.99057	7214.94309	9092.24606
4500	4800	6902.27541	6834.23624	6360.77584	5575.32728	4573.15631	8066.49286	4187.86993	4939.12595	4890.17131	4943.16658	7910.49953	8144.15218	4511.53557	5219.51743	5946.5806	5835.00117	5671.20812	7747.91369	7759.92683	7096.921	6373.08575	8833.84473	6809.45937	6422.82386	8912.72897	6608.7933	6994.83441	5225.31006	9101.30568	4497.26591	5622.39209	6942.60856	5999.72885	8349.76614	7696.83561	5558.25947	6068.27981	7409.16527	5693.84482	6540.07373	8606.74158	10339.77469	8085.0477	6784.61617	7143.72675
4800	5100	5893.62322	6997.01743	5312.58237	6177.36593	4856.45535	8560.11899	3761.63596	5523.08761	6214.18738	5671.18258	5940.46798	9586.07064	4525.50434	5596.64747	6366.0865	5792.21486	6213.25048	7998.91022	8003.72531	7934.16653	7321.85533	8513.875	7356.3844	5053.532	5613.64784	5258.46014	6436.52026	5274.47678	8654.00818	5019.44006	5796.79009	6234.70336	5273.12626	7086.40768	7202.72754	5753.30189	6130.19803	6990.38633	6462.53783	6239.69129	6815.7159	6288.41867	8176.26254	7355.18217	7999.66176
5100	5400	6363.40323	6418.2364	5271.3584	5007.41412	4079.94482	7807.95315	3421.24915	2983.27546	7265.53049	5924.03066	6705.47478	5335.43739	3239.70144	5945.03904	4747.74703	4935.8912	5326.81696	6969.95372	6026.52944	6474.29151	6728.56414	7794.03906	6562.99911	4820.89816	6724.81343	4605.37041	5587.75146	4116.96873	8167.9725	4601.60513	6027.27588	5098.57922	5166.90998	7428.62714	6009.6601	4354.48535	5106.78103	7653.31118	6381.31824	6251.80652	6772.23113	7142.60477	6518.8423	6083.52855	6480.06088
