frame_start	frame_end	Left-Cerebral-White-Matter	Left-Cerebellum-White-Matter	Left-Cerebellum-Cortex	Left-Thalamus	Left-Caudate	Left-Putamen	Left-Pallidum	Brain-Stem	Left-Hippocampus	Left-Amygdala	CSF	Left-Accumbens-area	Left-VentralDC	Left-choroid-plexus	Right-Cerebral-White-Matter	Right-Cerebellum-White-Matter	Right-Cerebellum-Cortex	Right-Thalamus	Right-Caudate	Right-Putamen	Right-Pallidum	Right-Hippocampus	Right-Amygdala	Right-Accumbens-area	Right-VentralDC	Right-choroid-plexus	AirCavity	Skull	Vermis	Pons	CSF-ExtraCerebral	Head-ExtraCerebral	ctx-lh-bankssts	ctx-lh-caudalanteriorcingulate	ctx-lh-caudalmiddlefrontal	ctx-lh-cuneus	ctx-lh-entorhinal	ctx-lh-fusiform	ctx-lh-inferiorparietal	ctx-lh-inferiortemporal	ctx-lh-isthmuscingulate	ctx-lh-lateraloccipital	ctx-lh-lateralorbitofrontal	ctx-lh-lingual	ctx-lh-medialorbitofrontal	ctx-lh-middletemporal	ctx-lh-parahippocampal	ctx-lh-paracentral	ctx-lh-parsopercularis	ctx-lh-parsorbitalis	ctx-lh-parstriangularis	ctx-lh-pericalcarine	ctx-lh-postcentral	ctx-lh-posteriorcingulate	ctx-lh-precentral	ctx-lh-precuneus	ctx-lh-rostralanteriorcingulate	ctx-lh-rostralmiddlefrontal	ctx-lh-superiorfrontal	ctx-lh-superiorparietal	ctx-lh-superiortemporal	ctx-lh-supramarginal	ctx-lh-frontalpole	ctx-lh-temporalpole	ctx-lh-transversetemporal	ctx-lh-insula	ctx-rh-bankssts	ctx-rh-caudalanteriorcingulate	ctx-rh-caudalmiddlefrontal	ctx-rh-cuneus	ctx-rh-entorhinal	ctx-rh-fusiform	ctx-rh-inferiorparietal	ctx-rh-inferiortemporal	ctx-rh-isthmuscingulate	ctx-rh-lateraloccipital	ctx-rh-lateralorbitofrontal	ctx-rh-lingual	ctx-rh-medialorbitofrontal	ctx-rh-middletemporal	ctx-rh-parahippocampal	ctx-rh-paracentral	ctx-rh-parsopercularis	ctx-rh-parsorbitalis	ctx-rh-parstriangularis	ctx-rh-pericalcarine	ctx-rh-postcentral	ctx-rh-posteriorcingulate	ctx-rh-precentral	ctx-rh-precuneus	ctx-rh-rostralanteriorcingulate	ctx-rh-rostralmiddlefrontal	ctx-rh-superiorfrontal	ctx-rh-superiorparietal	ctx-rh-superiortemporal	ctx-rh-supramarginal	ctx-rh-frontalpole	ctx-rh-temporalpole	ctx-rh-transversetemporal	ctx-rh-insula
0	30	178.5718994140625	264.99322509765625	762.9486083984375	750.5515747070312	1178.1849365234375	971.4378051757812	190.12173461914062	471.7410583496094	850.5325927734375	1042.2423095703125	251.07115173339844	1565.470703125	761.5245361328125	5478.90087890625	223.9815216064453	406.4955749511719	654.1241455078125	978.6691284179688	709.7160034179688	1191.727294921875	461.3411560058594	336.3699035644531	633.3515625	2546.83447265625	875.914794921875	3874.292236328125	-68.95169830322266	259.36358642578125	1362.423828125	437.17938232421875	756.200439453125	218.04336547851562	1157.2911376953125	1720.4056396484375	1373.8746337890625	1796.9156494140625	646.3756103515625	972.5517578125	1310.2196044921875	527.2647094726562	1407.9552001953125	1131.2255859375	750.2124633789062	1152.26318359375	1393.9024658203125	692.4439086914062	505.3872985839844	1029.76806640625	1166.2578125	625.3201293945312	1825.2445068359375	1886.165771484375	964.9407348632812	1126.700927734375	1182.71533203125	1340.6866455078125	1638.0865478515625	1455.983642578125	1209.632568359375	861.8963012695312	978.3707275390625	1437.520751953125	387.4519958496094	-474.824951171875	1651.866943359375	2155.589111328125	1134.4046630859375	1723.7781982421875	940.5332641601562	2503.784423828125	2204.69140625	528.352783203125	1007.474853515625	746.6987915039062	641.916259765625	1118.468017578125	1176.8162841796875	1200.211181640625	940.9520263671875	594.158935546875	540.2557983398438	781.525146484375	1510.2802734375	626.3643798828125	1482.587890625	1590.650390625	674.1832885742188	1377.882568359375	944.0626220703125	1431.8956298828125	1311.0570068359375	1191.2664794921875	1066.11181640625	898.9909057617188	814.5840454101562	1371.1240234375	2156.018310546875	-228.1456756591797	1628.3935546875	1457.6605224609375
30	60	2102.338623046875	4323.390625	9063.0634765625	9173.4658203125	12548.59375	14616.490234375	3990.8955078125	4768.361328125	8284.8916015625	6531.3759765625	2966.38525390625	12552.134765625	7407.38232421875	37434.03125	2245.388916015625	3703.911376953125	8822.494140625	10659.2451171875	12479.931640625	12955.607421875	4599.251953125	6889.77880859375	7688.19970703125	12785.833984375	7172.47802734375	30693.94921875	-636.1343383789062	2616.104736328125	9238.248046875	6638.27197265625	6609.6611328125	2152.465576171875	11956.3369140625	9969.484375	13523.455078125	20276.4375	8486.4638671875	10767.5	12427.220703125	10165.96875	10043.0693359375	14748.8740234375	11507.9189453125	15695.09765625	13641.763671875	8012.4033203125	5185.41064453125	10240.8037109375	14210.216796875	8054.44140625	16438.1484375	19422.98046875	12716.9033203125	11707.1259765625	12462.4228515625	13412.1494140625	11430.482421875	15210.2998046875	11980.25	10765.4853515625	10021.115234375	13948.513671875	12625.2744140625	2269.906982421875	18052.08203125	12176.1669921875	10935.3564453125	10143.2578125	12284.4775390625	20769.33203125	12613.6103515625	9997.19140625	11828.5791015625	9185.8310546875	12627.0185546875	14718.890625	12018.01171875	14409.44140625	11312.2236328125	8933.693359375	6725.4814453125	13256.5546875	14916.787109375	9316.19921875	12530.1845703125	18911.048828125	11887.908203125	12156.3994140625	11287.9794921875	14675.8525390625	11666.16796875	13340.4892578125	12457.6455078125	10743.47265625	9097.03515625	13136.1240234375	15321.09765625	4159.48388671875	19447.6015625	11443.7314453125
60	90	5135.81494140625	9328.33203125	21238.62109375	21268.92578125	32009.294921875	30239.748046875	10419.4931640625	10431.7568359375	19807.701171875	13147.0126953125	6231.41455078125	31553.951171875	13631.57421875	77507.25	5280.953125	9232.7412109375	20377.45703125	22851.595703125	28598.580078125	29915.103515625	11281.291015625	17448.15625	12945.7421875	21169.1328125	15150.1484375	93927.7890625	-1478.0186767578125	5621.28662109375	24707.912109375	15491.4296875	12229.2392578125	4855.802734375	26244.990234375	25213.359375	31753.017578125	48216.95703125	16365.076171875	23693.048828125	30448.818359375	23886.6171875	21024.630859375	35186.234375	28851.775390625	35398.09765625	25476.21875	21317.021484375	11596.65234375	26741.673828125	34247.64453125	19795.244140625	34921.08984375	51292.6640625	32406.92578125	23753.158203125	29024.4453125	31590.216796875	21142.064453125	35095.69140625	30318.482421875	27457.611328125	23678.57421875	33650.39453125	31895.26953125	9497.3681640625	40958.7734375	24509.951171875	30263.2734375	24361.900390625	31743.455078125	46021.69921875	24577.828125	21105.78125	29028.3203125	21127.287109375	27641.8203125	33931.66796875	27728.314453125	30798.810546875	29097.5546875	21220.021484375	11573.0009765625	28911.591796875	33217.2578125	24673.66015625	32108.26171875	44262.62109375	30817.712890625	28655.236328125	28378.9453125	34827.53125	27296.482421875	31545.5703125	29604.458984375	29342.861328125	21661.791015625	31754.21875	29388.826171875	10291.658203125	35238.203125	23603.009765625
90	120	8208.435546875	15179.5107421875	32229.06640625	33089.4375	50543.98828125	47852.33984375	14883.68359375	16651.873046875	31035.955078125	19939.498046875	8353.919921875	36000.765625	20063.484375	127645.84375	8526.4013671875	15236.0869140625	31052.50390625	34822.34765625	45213.9453125	42178.6796875	22036.025390625	26422.80859375	21275.486328125	22105.55859375	21837.96484375	150572.546875	-2068.270263671875	8456.501953125	37693.52734375	22117.54296875	15781.1474609375	7542.28076171875	42861.99609375	38477.5	52681.37890625	66802.4375	25580.732421875	35699.34765625	46988.14453125	36329.01171875	29048.326171875	54215.56640625	41343.34765625	49650.921875	46204.328125	34387.42578125	19762.11328125	45271.6796875	49369.31640625	36148.63671875	52171.2109375	79120.71875	51665.66796875	34904.02734375	44707.203125	51058.82421875	31125.22265625	55268.00390625	48177.69140625	45523.79296875	35649.84765625	50001.85546875	46961.51171875	12722.3662109375	57061.4375	39796.22265625	40988.80859375	34519.36328125	49449.26953125	71155.6484375	32225.6328125	33457.42578125	44855.5703125	33671.671875	41688.359375	53821.90234375	42080.86328125	46670.3359375	42813.328125	33444.1640625	22117.412109375	50546.63671875	46412.4140625	37730.22265625	50515.91015625	73452.3984375	49780.71484375	42161.91796875	44380.26953125	51289.9375	42769.54296875	50641.2890625	45901.828125	47915.9296875	33763.015625	48166.51953125	39919.34765625	16582.517578125	51370.1484375	34145.46484375
120	150	10655.25	20956.650390625	41044.98828125	42776.6015625	60398.390625	63153.64453125	22448.6015625	22117.70703125	38166.69921875	29758.9765625	12786.537109375	49429.41796875	25527.544921875	133893.265625	11176.0537109375	18751.4609375	40379.6484375	46637.60546875	54540.01171875	57594.7109375	23396.935546875	34916.4453125	29349.96484375	40259.87109375	24726.962890625	164182.25	-2274.914306640625	11071.0263671875	49579.9140625	29742.361328125	16847.17578125	10269.5068359375	52878.90625	47745.05859375	68197.828125	91276.703125	28240.169921875	48125.63671875	63237.140625	46642.34375	36854.12109375	67042.8984375	56605.23828125	64614.5546875	52299.4375	45978.35546875	27922.556640625	58373.609375	64144.0859375	50574.81640625	68957.9609375	99849.4765625	70401.609375	51043.30859375	59183.80859375	65740.2734375	47387.05859375	70361.5859375	61029.62890625	60377.2421875	46743.91796875	63290.03515625	66523.515625	15588.798828125	72873.5703125	47352.8203125	52356.77734375	45005.28515625	62857.2578125	88009.6328125	33453.67578125	44836.2265625	58713.2890625	43851.8203125	49623.0625	67535.96875	54927.46484375	59014.83203125	57153.34375	44185.13671875	25407.767578125	64868.5703125	56724.36328125	48653.453125	64968.15234375	94541.4453125	66113.7890625	49699.328125	56444.578125	66281.875	50342.796875	64763.82421875	58361.8046875	60848.48046875	43025.80078125	60865.1484375	52162.1875	21888.4609375	69560.7109375	44545.02734375
150	180	11247.18359375	21743.470703125	41898.046875	44580.35546875	67847.828125	65813.3359375	21488.384765625	23652.1875	38310.55859375	26124.400390625	11467.94921875	46879.2421875	25239.7734375	131136.359375	11555.927734375	19584.90625	41252.75390625	46266.98046875	56326.03125	62313.16015625	22332.7734375	36211.6171875	26424.4140625	30439.64453125	28042.265625	151389.828125	-3192.32958984375	11822.2177734375	48083.30078125	32268.587890625	13810.015625	11210.69921875	54076.88671875	49572.90234375	71071.8046875	95478.296875	31389.64453125	47444.56640625	64460.08203125	50291.203125	38755.85546875	70818.609375	57804.90234375	68253.75	58600.23046875	46290.88671875	27774.740234375	65130.83203125	64145.70703125	46697.53125	70205.6875	109719.9140625	71355.0390625	48197.94140625	61505.609375	69099.59375	45781.75390625	75247.7578125	64372.72265625	66402.1640625	47626.87890625	65610.8984375	65779.4140625	21416.251953125	71699.9296875	46316.79296875	56111.8984375	42490.29296875	66617.75	94399.609375	38479.9296875	45747.46484375	62710.51171875	45850.68359375	54011.59765625	70107.4296875	54492.26953125	60865.6796875	59758.76171875	48222.5078125	31129.962890625	61877.46484375	60511.8828125	52619.16015625	68386.765625	90126.2421875	69299.2890625	54858.3828125	61021.21484375	67635.625	53408.90625	67539.9765625	62503.96484375	66741.0234375	46736.48046875	62906.0	57699.1640625	23336.875	80819.7734375	42862.1953125
180	240	11382.9345703125	21360.296875	40837.2578125	45264.29296875	63910.7421875	64359.5	23126.73046875	23575.080078125	37840.890625	30475.451171875	10471.64453125	56989.4375	24477.197265625	129724.9609375	11702.6142578125	19697.83203125	40419.546875	48244.80078125	56761.1171875	59362.8671875	25926.22265625	38029.0703125	28907.591796875	27725.294921875	25217.60546875	122864.78125	-3003.18359375	11397.263671875	49274.09375	31173.9609375	11805.66796875	11511.3271484375	55833.55859375	45011.2890625	66882.703125	85762.265625	32201.67578125	46633.93359375	62291.01953125	49263.0078125	40707.69140625	67460.875	56160.13671875	61489.32421875	57483.23828125	49521.25	26263.30859375	64245.31640625	61811.890625	46519.90625	70715.984375	98095.421875	69599.84375	49215.54296875	61194.28515625	64614.45703125	51445.125	71691.0546875	62116.50390625	65975.3984375	48343.9453125	62259.12890625	60134.2578125	22005.60546875	71750.015625	48980.625	55530.96484375	41596.17578125	64455.30859375	87931.046875	36410.90625	44742.5234375	62143.6015625	45000.67578125	46207.08984375	67866.6171875	54332.74609375	59332.2109375	58334.29296875	46904.109375	30485.865234375	62860.30078125	57444.84375	47690.54296875	66708.2265625	88046.9375	69817.0546875	54500.9765625	60080.16796875	66557.8125	48924.52734375	66999.15625	60960.29296875	65974.53125	46058.671875	60521.89453125	58614.8359375	23641.7421875	67337.03125	42196.12109375
240	300	12022.119140625	20161.857421875	38349.0078125	42210.68359375	61202.69140625	60328.05078125	21101.08984375	23128.427734375	32781.80859375	28060.693359375	7363.86767578125	49560.5546875	25979.484375	116279.4140625	11871.193359375	18753.7734375	37611.08203125	46390.1015625	55056.390625	56436.1015625	26295.267578125	35831.84765625	32640.7265625	24869.62109375	24006.958984375	116695.328125	-2930.352294921875	11028.927734375	45499.33203125	27786.9609375	9477.396484375	11461.2294921875	50839.796875	46292.5546875	60427.2265625	79679.65625	33249.8828125	44176.3828125	59486.7265625	46464.5234375	37502.77734375	63784.19921875	51488.7109375	57674.00390625	52905.5625	45914.96875	27931.193359375	59532.30078125	57202.5703125	41952.78125	65810.5078125	88547.1484375	65387.76953125	42927.83203125	57675.97265625	60497.08203125	47742.8125	66136.2578125	58640.10546875	62815.6875	47767.84765625	58435.625	60567.42578125	25066.5234375	65216.3515625	45075.70703125	52157.70703125	42098.06640625	61928.53125	77693.6875	32673.673828125	44423.3125	58857.80078125	43009.00390625	46724.515625	62889.53125	49796.2265625	55431.12890625	53665.03515625	46113.3984375	28861.75	60945.828125	54226.70703125	46993.67578125	61334.8203125	77103.421875	64910.4296875	50304.7890625	57063.0390625	62328.63671875	44987.24609375	61987.1953125	57144.03125	63834.05078125	45738.2109375	58310.52734375	53362.453125	21978.572265625	54580.49609375	41262.703125
300	360	12082.40234375	19178.720703125	36349.10546875	41663.6015625	56319.69921875	54588.55078125	24108.494140625	22543.771484375	33115.63671875	28775.568359375	5662.8935546875	46513.3359375	23822.146484375	105321.6796875	12072.09375	18665.884765625	35807.48828125	44731.46875	51706.265625	52166.90625	24600.384765625	34286.6640625	29594.90625	32138.806640625	26128.400390625	96483.5703125	-2728.340087890625	10834.4443359375	39646.85546875	27081.353515625	7458.990234375	11355.4755859375	50809.95703125	43678.28515625	56506.3515625	73982.8359375	36926.359375	42009.9453125	54016.234375	45818.26953125	35311.8125	57765.1953125	46812.5078125	55506.16015625	49141.0	43218.6640625	28083.56640625	58764.46484375	52186.93359375	39336.86328125	57257.66015625	77214.7109375	60616.390625	41775.5078125	53005.44140625	55491.09765625	43491.53125	60565.70703125	54226.09375	59305.95703125	45456.1328125	53504.5234375	54955.71484375	26108.02734375	59572.578125	44012.04296875	46275.2734375	36909.4296875	55494.01953125	72959.90625	36897.53125	41426.73046875	54456.44921875	41052.04296875	42778.30859375	58315.76171875	44560.234375	51096.109375	51717.23828125	44294.29296875	29523.544921875	57006.515625	50088.375	43653.125	57238.14453125	71575.203125	59828.546875	48359.3515625	54330.59375	56827.6640625	43544.00390625	58821.53125	53764.3515625	60891.09765625	42969.3984375	53852.046875	46604.7578125	24436.220703125	54462.23828125	38655.76953125
360	480	12702.9189453125	20129.962890625	33794.45703125	41149.234375	52104.1484375	51139.76171875	25514.31640625	23574.294921875	31501.837890625	30155.021484375	4216.77001953125	46757.86328125	25314.08203125	78893.15625	12539.068359375	19159.37890625	33660.390625	43844.71484375	47634.41796875	49364.8046875	24450.044921875	32216.46875	29567.3828125	24435.923828125	26451.140625	81193.6328125	-2693.5712890625	10982.9833984375	35152.140625	26089.328125	5603.9462890625	11548.7060546875	45614.8359375	42545.18359375	51176.9921875	68292.2734375	36561.6875	39302.30078125	50397.6640625	43730.41015625	35731.2109375	52952.0546875	44422.82421875	51389.1484375	47917.7578125	41122.6015625	26955.712890625	54054.55078125	48763.04296875	39244.54296875	54110.390625	66237.7421875	55455.828125	40721.8203125	50174.7109375	51985.59765625	41709.5234375	55164.48046875	50484.7265625	54490.87890625	43429.80078125	50089.65625	50970.3671875	25884.30078125	57616.515625	41724.76171875	45783.375	35437.56640625	51349.96875	67534.109375	36290.98046875	38168.43359375	51402.00390625	41137.3671875	39656.7578125	54486.3984375	42554.109375	48139.02734375	48628.7421875	41740.8125	29557.40234375	53013.0546875	47577.5546875	41187.50390625	53267.1640625	58246.50390625	55763.75390625	44337.81640625	50484.59765625	51465.90234375	42117.35546875	54089.41796875	49637.62109375	56257.5703125	42291.1171875	49629.53125	47636.46875	25023.1015625	49894.4453125	39101.0703125
480	600	13663.3779296875	20275.263671875	31580.53125	40088.3046875	48306.8671875	48155.83984375	25178.953125	22831.623046875	29555.900390625	30818.501953125	2132.741455078125	46152.75390625	25386.25390625	71373.296875	13180.7451171875	19407.4375	31938.171875	42075.7734375	43919.03515625	45842.6015625	25664.408203125	29477.37109375	33881.41796875	28739.068359375	28051.046875	75174.84375	-2673.719482421875	11195.1181640625	32263.84375	27289.2265625	3825.1220703125	12172.9130859375	44410.1640625	43732.328125	46643.74609375	61798.3125	38542.578125	38284.8046875	46160.58984375	41881.9375	33155.4921875	48108.76953125	41576.4140625	47594.3828125	45195.58984375	38911.5390625	27320.595703125	49823.2421875	44554.73828125	37961.625	48594.08984375	59503.51953125	50967.6796875	39076.46484375	46881.9765625	47504.25	40578.90234375	50680.79296875	46935.62109375	50870.84375	41752.25	45714.30078125	49881.578125	28563.068359375	47605.0703125	40519.9765625	41261.68359375	37725.25390625	49048.07421875	58790.0546875	40167.5	36191.43359375	47881.40234375	40311.6875	39170.76171875	50398.4375	40140.8671875	44627.1640625	44832.46875	40722.9765625	34056.33984375	51345.98828125	43100.62890625	40183.796875	48509.32421875	55537.73046875	51992.79296875	43568.234375	48291.03515625	47668.0	38359.515625	50112.31640625	46620.78515625	52368.59375	40930.86328125	46075.8203125	47447.69921875	27262.53515625	45271.015625	36072.36328125
600	900	15238.150390625	21150.494140625	28590.095703125	37927.94140625	41948.81640625	41445.5859375	27544.890625	24118.435546875	26608.314453125	31626.244140625	1309.391357421875	45556.9609375	27331.755859375	52550.328125	14751.0146484375	20474.0078125	28920.19921875	39037.109375	39394.50390625	39766.84765625	28286.1484375	28224.919921875	32192.712890625	27324.24609375	28517.708984375	65457.14453125	-2660.00732421875	11870.056640625	29298.068359375	26648.103515625	2266.58154296875	13094.1650390625	41084.48046875	40892.34375	43109.46875	53785.96484375	40830.6640625	34247.29296875	41535.06640625	38430.6328125	32680.408203125	42429.125	38510.9609375	42634.875	40175.19921875	35557.328125	26997.6015625	45407.7890625	39971.0703125	36319.95703125	42671.8828125	50651.16015625	45957.03125	36832.36328125	42819.859375	42579.02734375	37090.08203125	45997.67578125	42173.0078125	45760.08984375	38354.65234375	41061.53515625	49184.59765625	30539.546875	46391.78515625	38907.06640625	37830.25	35486.23046875	44025.671875	53026.109375	37765.31640625	32410.689453125	43289.70703125	37781.0	40001.765625	45119.67578125	36569.5390625	40162.77734375	41002.94140625	37258.265625	30631.958984375	44601.76953125	39988.21484375	36713.41015625	44000.81640625	48598.4765625	46910.8046875	40638.95703125	43583.74609375	42644.203125	36226.328125	45508.3203125	42240.76953125	48322.27734375	37068.4375	41827.13671875	45490.01953125	27346.48046875	40180.10546875	34903.48828125
900	1200	17017.658203125	21819.041015625	24434.568359375	33233.53515625	32562.888671875	35959.140625	27314.521484375	23524.78125	23228.548828125	30467.947265625	-648.3982543945312	38471.99609375	28946.736328125	33052.91796875	16364.3466796875	21123.861328125	24832.1171875	35411.64453125	32382.142578125	33699.23046875	28471.05859375	25016.388671875	30326.376953125	25200.939453125	29403.390625	38761.6328125	-2812.55859375	12501.384765625	23602.720703125	25455.7109375	365.25299072265625	14023.86328125	34809.28515625	39437.59765625	36134.4921875	46289.3125	37276.234375	31021.677734375	35198.0	34795.71484375	31906.93359375	36124.4296875	33723.16015625	36593.0625	35633.7421875	31797.33203125	25808.666015625	37995.0390625	33212.76953125	34523.265625	35944.95703125	42323.2265625	39020.27734375	34964.0625	37249.95703125	36734.9609375	30916.0390625	38810.046875	36159.578125	39934.671875	33347.2734375	35438.69140625	41822.19921875	29693.03515625	41235.84765625	34439.1015625	33296.68359375	33710.49609375	37257.85546875	43708.07421875	32776.49609375	30076.5546875	37677.73046875	34246.515625	35878.5625	38674.71875	31920.51953125	35684.87109375	36403.1953125	32943.484375	28982.458984375	40842.1328125	35507.74609375	33333.2109375	38641.609375	42247.20703125	40082.953125	35123.859375	38666.4765625	37495.953125	31843.7578125	39684.40234375	36983.5859375	42910.83984375	33614.91015625	35807.1015625	40941.83984375	25603.66796875	35711.37109375	30745.546875
1200	1500	18002.53125	21990.583984375	20568.6640625	30056.736328125	27577.26171875	28955.46484375	26096.333984375	21636.099609375	20130.650390625	26478.50390625	-767.5488891601562	29941.583984375	26554.8984375	20492.908203125	17007.5390625	21339.056640625	21233.681640625	30570.828125	25754.255859375	27838.46484375	27341.7578125	22909.98046875	25307.470703125	22133.763671875	28150.982421875	32938.12109375	-2856.058837890625	12840.80078125	20376.267578125	23637.341796875	298.4923400878906	14251.3701171875	30683.748046875	33737.625	30078.693359375	37916.4140625	35266.125	27482.90234375	29969.583984375	30885.595703125	28012.787109375	29856.7109375	28778.728515625	32122.8203125	31149.265625	27000.1484375	22875.30078125	31331.021484375	28065.236328125	28610.8359375	29883.5703125	34979.9375	32626.11328125	30300.208984375	31023.412109375	31143.525390625	28979.9609375	32915.31640625	30321.30078125	33018.07421875	29191.287109375	29761.49609375	36249.96875	28026.87109375	35710.2890625	31259.271484375	28604.3671875	29873.94921875	31504.7265625	38529.98046875	33044.72265625	26153.705078125	32548.884765625	31340.646484375	32978.66015625	33142.19140625	28916.474609375	31909.8125	31989.447265625	28978.318359375	26343.525390625	35275.7734375	30975.32421875	30212.294921875	33221.515625	32765.875	33791.1171875	32401.2578125	33002.61328125	31900.353515625	27003.51953125	34200.73046875	31388.609375	36059.53125	28582.92578125	31126.787109375	36861.6953125	22741.076171875	31704.75	27972.150390625
1500	1800	18299.037109375	21646.474609375	17244.2421875	25720.712890625	22218.244140625	24858.623046875	24637.33984375	19267.47265625	17198.8515625	22824.580078125	-1088.44482421875	22455.14453125	24660.19921875	14503.0537109375	17324.671875	20945.896484375	17959.26171875	26930.384765625	21092.744140625	23890.166015625	24994.53125	18396.783203125	24245.1796875	14614.53125	25277.189453125	27028.509765625	-2903.841064453125	12813.951171875	17119.6015625	22689.814453125	571.5541381835938	14383.0498046875	26614.599609375	30226.28125	25036.609375	33600.984375	32875.828125	23955.7890625	25426.806640625	27144.716796875	25517.87890625	25097.658203125	25562.654296875	28649.68359375	27098.291015625	23068.3359375	18937.828125	26785.96484375	22969.791015625	23892.5	26221.431640625	31493.337890625	27033.923828125	25771.123046875	26476.142578125	26907.322265625	23896.05859375	27830.373046875	25615.287109375	28514.546875	24959.25	25801.6796875	32997.03515625	25926.404296875	30838.984375	27407.701171875	25983.86328125	25491.982421875	26305.9921875	31491.119140625	29685.580078125	23067.388671875	28091.771484375	28257.328125	28055.84765625	29060.349609375	25255.63671875	27375.814453125	26154.19140625	24741.796875	27263.681640625	28933.419921875	26366.3046875	25848.52734375	28672.314453125	31302.73828125	29454.404296875	27499.62109375	28633.14453125	27330.88671875	25125.8828125	29265.490234375	26817.794921875	31433.103515625	25100.32421875	26921.650390625	34495.76171875	20521.44921875	24966.291015625	23732.53515625
1800	2100	18563.673828125	20194.302734375	15106.3642578125	21713.49609375	18188.189453125	20696.7734375	21380.392578125	16568.376953125	14728.763671875	20695.568359375	-724.3833618164062	17903.34375	23633.55859375	6167.7802734375	17663.625	20013.744140625	15356.9814453125	22788.337890625	17339.611328125	20117.8828125	24779.69921875	16146.5537109375	21705.240234375	9284.83203125	24255.30859375	15352.51953125	-3001.7744140625	12769.173828125	15104.478515625	20991.681640625	1059.7596435546875	14497.037109375	23237.150390625	28327.498046875	20691.2578125	30170.244140625	29120.68359375	22616.99609375	21394.783203125	25144.9375	22751.998046875	21996.400390625	23405.908203125	25344.595703125	22792.109375	19720.671875	16229.26953125	22484.611328125	20402.638671875	22822.466796875	21614.16015625	25140.78515625	23326.669921875	23390.591796875	22088.830078125	23160.890625	19733.99609375	23399.3046875	21512.740234375	23604.119140625	21021.412109375	21899.69140625	30452.33984375	21488.580078125	26621.435546875	24312.576171875	22707.720703125	21945.185546875	22697.99609375	27678.185546875	22780.587890625	20705.57421875	24295.693359375	26077.890625	25695.712890625	25232.10546875	22401.345703125	25632.84375	24524.76953125	22350.951171875	21898.298828125	25257.072265625	25039.447265625	23761.357421875	25025.083984375	26770.54296875	25912.015625	24914.083984375	24616.1328125	22939.3046875	21707.48046875	25201.1171875	22777.77734375	26154.841796875	21903.642578125	23716.98828125	31295.701171875	16901.875	25813.873046875	21457.73828125
2100	2400	18410.82421875	18927.4609375	12653.8642578125	18545.13671875	14095.3330078125	17396.208984375	19331.330078125	14185.9775390625	12278.8203125	19117.447265625	184.59991455078125	9741.6982421875	22139.79296875	-4316.96435546875	17294.98828125	18805.513671875	13121.7626953125	19415.48828125	13361.412109375	17749.59375	19885.525390625	14179.884765625	18647.619140625	4034.652099609375	21983.4765625	9627.99609375	-3073.2919921875	12681.8623046875	13905.7900390625	19814.986328125	1431.555419921875	14217.6298828125	21495.482421875	25247.662109375	16866.396484375	24821.5546875	24802.90625	22020.1796875	17400.9453125	23049.419921875	19974.15625	18759.38671875	21217.16796875	23523.38671875	21148.21875	16919.396484375	15008.4140625	20229.267578125	18605.650390625	21972.849609375	17628.53515625	21964.275390625	19067.583984375	19693.416015625	18654.73046875	19711.927734375	15581.2060546875	19312.548828125	17631.591796875	19888.046875	17753.400390625	20035.580078125	29927.892578125	20867.91796875	24646.744140625	21640.439453125	19436.349609375	20142.294921875	19865.412109375	23438.2734375	20402.9140625	20570.013671875	20840.19140625	23171.337890625	22846.716796875	22068.546875	21562.548828125	22832.353515625	21033.470703125	18999.599609375	19468.857421875	20729.48046875	22740.138671875	22002.859375	20759.876953125	23504.42578125	21429.333984375	22109.966796875	21422.58203125	20172.044921875	22535.666015625	22262.38671875	19464.416015625	23421.6796875	19473.8203125	20577.56640625	26947.859375	14140.8896484375	21721.689453125	19320.49609375
2400	2700	18070.6015625	17447.16796875	11151.4677734375	15443.8525390625	10634.416015625	15295.587890625	16113.8017578125	13040.548828125	11436.708984375	16648.822265625	1343.372314453125	5362.9609375	19955.529296875	-5764.0283203125	17104.076171875	17576.296875	11516.8955078125	17032.67578125	10838.2568359375	14366.4111328125	18964.90625	12307.3876953125	17832.85546875	-1039.92626953125	19501.48828125	349.0464782714844	-3041.832275390625	12426.3076171875	12545.9453125	17701.4140625	2192.5869140625	13879.587890625	19104.798828125	21545.859375	14151.5908203125	20469.234375	23230.236328125	20267.15234375	15890.119140625	20734.0546875	18807.505859375	17069.19140625	20347.2109375	20851.556640625	19983.138671875	14996.7880859375	13077.20703125	18137.66015625	16190.20703125	20217.177734375	16318.7939453125	18907.853515625	16815.732421875	16693.650390625	15875.341796875	18229.59375	14907.294921875	17125.873046875	15249.2529296875	17129.427734375	15781.1396484375	17674.51171875	25993.333984375	17247.416015625	23403.36328125	20311.17578125	17876.544921875	17615.654296875	15797.9248046875	19321.08984375	17747.890625	18668.53125	18593.357421875	21352.353515625	20921.607421875	19224.091796875	19498.23828125	21556.720703125	18286.662109375	16857.9765625	20417.1796875	19873.537109375	20264.1796875	19891.626953125	18339.181640625	23850.2265625	18966.8203125	19737.166015625	18956.349609375	18470.931640625	17781.361328125	19360.36328125	16528.435546875	19309.521484375	16763.345703125	18077.275390625	26619.681640625	13150.326171875	15266.193359375	17509.26953125
