frame_start	frame_end	Left-Lateral-Ventricle	Left-Inf-Lat-Vent	Left-Cerebellum-White-Matter	Left-Cerebellum-Cortex	Left-Thalamus	Left-Caudate	Left-Putamen	Left-Pallidum	3rd-Ventricle	4th-Ventricle	Brain-Stem	Left-Hippocampus	Left-Amygdala	CSF	Left-Accumbens-area	Left-VentralDC	Left-vessel	Left-choroid-plexus	Right-Lateral-Ventricle	Right-Inf-Lat-Vent	Right-Cerebellum-White-Matter	Right-Cerebellum-Cortex	Right-Thalamus	Right-Caudate	Right-Putamen	Right-Pallidum	Right-Hippocampus	Right-Amygdala	Right-Accumbens-area	Right-VentralDC	Right-vessel	Right-choroid-plexus	Optic-Chiasm	CC_Posterior	CC_Mid_Posterior	CC_Central	CC_Mid_Anterior	CC_Anterior	ctx-lh-bankssts	ctx-lh-caudalanteriorcingulate	ctx-lh-caudalmiddlefrontal	ctx-lh-cuneus	ctx-lh-entorhinal	ctx-lh-fusiform	ctx-lh-inferiorparietal	ctx-lh-inferiortemporal	ctx-lh-isthmuscingulate	ctx-lh-lateraloccipital	ctx-lh-lateralorbitofrontal	ctx-lh-lingual	ctx-lh-medialorbitofrontal	ctx-lh-middletemporal	ctx-lh-parahippocampal	ctx-lh-paracentral	ctx-lh-parsopercularis	ctx-lh-parsorbitalis	ctx-lh-parstriangularis	ctx-lh-pericalcarine	ctx-lh-postcentral	ctx-lh-posteriorcingulate	ctx-lh-precentral	ctx-lh-precuneus	ctx-lh-rostralanteriorcingulate	ctx-lh-rostralmiddlefrontal	ctx-lh-superiorfrontal	ctx-lh-superiorparietal	ctx-lh-superiortemporal	ctx-lh-supramarginal	ctx-lh-frontalpole	ctx-lh-temporalpole	ctx-lh-transversetemporal	ctx-lh-insula	ctx-rh-bankssts	ctx-rh-caudalanteriorcingulate	ctx-rh-caudalmiddlefrontal	ctx-rh-cuneus	ctx-rh-entorhinal	ctx-rh-fusiform	ctx-rh-inferiorparietal	ctx-rh-inferiortemporal	ctx-rh-isthmuscingulate	ctx-rh-lateraloccipital	ctx-rh-lateralorbitofrontal	ctx-rh-lingual	ctx-rh-medialorbitofrontal	ctx-rh-middletemporal	ctx-rh-parahippocampal	ctx-rh-paracentral	ctx-rh-parsopercularis	ctx-rh-parsorbitalis	ctx-rh-parstriangularis	ctx-rh-pericalcarine	ctx-rh-postcentral	ctx-rh-posteriorcingulate	ctx-rh-precentral	ctx-rh-precuneus	ctx-rh-rostralanteriorcingulate	ctx-rh-rostralmiddlefrontal	ctx-rh-superiorfrontal	ctx-rh-superiorparietal	ctx-rh-superiortemporal	ctx-rh-supramarginal	ctx-rh-frontalpole	ctx-rh-temporalpole	ctx-rh-transversetemporal	ctx-rh-insula	wm-lh-bankssts	wm-lh-caudalanteriorcingulate	wm-lh-caudalmiddlefrontal	wm-lh-cuneus	wm-lh-entorhinal	wm-lh-fusiform	wm-lh-inferiorparietal	wm-lh-inferiortemporal	wm-lh-isthmuscingulate	wm-lh-lateraloccipital	wm-lh-lateralorbitofrontal	wm-lh-lingual	wm-lh-medialorbitofrontal	wm-lh-middletemporal	wm-lh-parahippocampal	wm-lh-paracentral	wm-lh-parsopercularis	wm-lh-parsorbitalis	wm-lh-parstriangularis	wm-lh-pericalcarine	wm-lh-postcentral	wm-lh-posteriorcingulate	wm-lh-precentral	wm-lh-precuneus	wm-lh-rostralanteriorcingulate	wm-lh-rostralmiddlefrontal	wm-lh-superiorfrontal	wm-lh-superiorparietal	wm-lh-superiortemporal	wm-lh-supramarginal	wm-lh-frontalpole	wm-lh-temporalpole	wm-lh-transversetemporal	wm-lh-insula	wm-rh-bankssts	wm-rh-caudalanteriorcingulate	wm-rh-caudalmiddlefrontal	wm-rh-cuneus	wm-rh-entorhinal	wm-rh-fusiform	wm-rh-inferiorparietal	wm-rh-inferiortemporal	wm-rh-isthmuscingulate	wm-rh-lateraloccipital	wm-rh-lateralorbitofrontal	wm-rh-lingual	wm-rh-medialorbitofrontal	wm-rh-middletemporal	wm-rh-parahippocampal	wm-rh-paracentral	wm-rh-parsopercularis	wm-rh-parsorbitalis	wm-rh-parstriangularis	wm-rh-pericalcarine	wm-rh-postcentral	wm-rh-posteriorcingulate	wm-rh-precentral	wm-rh-precuneus	wm-rh-rostralanteriorcingulate	wm-rh-rostralmiddlefrontal	wm-rh-superiorfrontal	wm-rh-superiorparietal	wm-rh-superiortemporal	wm-rh-supramarginal	wm-rh-frontalpole	wm-rh-temporalpole	wm-rh-transversetemporal	wm-rh-insula	Left-UnsegmentedWhiteMatter	Right-UnsegmentedWhiteMatter
0	30	432.69248	325.01658	462.20388	673.86288	663.64274	641.63155	721.5921	425.40931	566.00481	346.12336	477.07366	674.9618	611.8735	926.57394	759.87992	635.30622	165.79421	862.06942	441.23456	238.16209	502.78101	623.54265	768.3262	535.43117	804.61054	611.76632	430.00558	429.4492	821.8999	712.14971	334.69548	562.68773	739.56688	296.99076	350.79465	257.20535	221.58487	592.32171	703.16739	893.6974	738.64587	955.89121	498.33438	597.24172	772.05072	447.34799	736.47425	684.7338	565.79302	763.93996	811.32276	513.37114	582.57031	710.9285	782.14139	521.71048	894.85943	884.70806	667.81809	752.12934	712.1238	815.89459	888.28732	799.52582	745.22223	663.68266	673.77654	831.74902	534.81863	174.55166	912.55343	1080.32818	683.02516	951.0028	681.57657	1092.85578	810.49884	469.21272	701.56719	538.23616	651.54492	696.06218	704.3392	782.09606	755.74311	536.2442	528.09116	683.19905	945.25144	621.83935	887.59776	920.16155	634.85717	751.75878	675.28133	882.9647	846.31986	763.347	745.8006	695.2326	654.85498	831.5047	821.43298	229.10572	887.09756	853.45603	403.45626	500.66127	582.33038	868.80347	570.72921	447.66107	590.31496	388.13795	453.57908	598.36003	413.75205	666.29719	644.71189	418.89189	667.79304	606.54455	587.38794	415.70385	599.61912	739.6681	593.76348	368.18884	490.61723	551.84749	557.47148	514.62819	557.24944	535.63121	505.91234	514.79073	507.50267	270.24698	620.99238	634.96759	464.93352	394.35225	459.34191	972.98	712.58919	372.46108	559.20854	490.92411	423.32175	597.53186	575.47443	707.02051	550.85147	416.42723	445.19995	446.39521	612.91575	564.64131	690.78496	680.52347	515.39429	522.94237	425.89406	603.85124	533.0956	545.3063	537.68997	529.15888	523.89192	541.42674	1031.58099	275.97355	604.58542	609.51045	354.39959	353.46728
30	60	4498.14831	4034.68486	6038.34584	7802.92845	7508.959	7246.77504	9141.62169	6256.31929	6379.62624	4472.75297	5685.9253	6459.46768	5769.98458	8220.7547	7561.25385	6428.75975	4957.51185	6776.16704	4520.79512	4905.01608	5614.68239	7760.82174	8251.3347	7249.91703	8509.20135	6049.55123	5932.19235	6114.41987	7590.1174	6718.46739	6993.01953	6563.71654	4647.58078	3959.68468	4956.93773	2639.66873	3120.92743	3728.65374	7069.6863	6922.67579	7483.68277	10088.92682	6148.98557	7350.52979	7551.35919	6347.56182	7233.00266	7934.01357	6937.286	9186.54266	8115.55207	5683.50375	6178.22518	7316.72115	8288.10478	5962.69893	8484.35321	9412.43042	7472.98512	7189.31529	7435.83686	8414.18302	7704.40767	8175.62733	7513.64531	7132.09267	6858.03967	8009.23572	7292.7425	4168.66706	9453.17609	8388.65909	6818.46782	6978.35057	7824.14946	10184.81406	6755.9613	6826.93549	7678.47874	6279.57763	7871.52294	8199.16687	7045.36157	8863.66346	7609.79919	6353.84472	6409.87348	7760.16464	8920.77482	6666.36923	8019.69578	9831.37744	7455.43787	7755.09591	7435.93628	8832.68426	8024.44937	8065.7945	7934.46908	7198.05809	6842.3888	8217.8169	7597.05353	4340.34334	8795.32463	7998.62616	4844.211	3454.94553	5045.00343	8753.92131	5463.45668	5699.29869	5519.81698	5560.67835	4818.14024	6712.64422	5703.55604	8064.01325	6896.35087	5330.05564	6144.55418	5266.22042	6492.69788	6798.69594	6276.41252	7592.91908	6899.4139	3902.25809	5048.53416	5999.90667	4779.32476	5746.65072	5348.23841	5521.20852	5723.66367	5871.8603	7781.21961	5317.82236	6901.39393	6130.85721	4645.18803	3583.83096	4983.66418	8872.98645	5521.11683	5936.68975	5745.5639	6073.61093	5273.69116	7039.34211	6070.31679	7891.40587	6005.01557	5490.18181	5790.67516	5362.51298	6316.53562	6940.20315	6000.44861	7671.47908	6650.07143	4211.45163	5166.7851	6197.65659	4986.79989	5425.68758	5545.55606	5641.69843	6105.55434	5634.76126	8831.9951	5007.8252	7440.81614	5923.6736	3836.53641	3747.55999
60	90	10251.43516	11094.17774	13600.57719	18103.64842	17205.04439	17917.3177	19329.84531	14087.11451	13580.07157	10819.21409	12594.80982	14727.25919	12657.6727	18432.36414	17778.42367	13366.01246	11268.93617	15189.05836	10476.46284	12540.35167	13364.92764	17797.25306	18320.04915	16718.13832	19185.94947	14240.792	14034.21291	12009.43919	15940.97547	13820.24612	10057.61414	16775.24398	8794.16105	8525.45779	11389.32305	5794.13389	5413.86447	8608.59032	16138.18282	16491.6278	17260.73899	23068.48809	13066.82716	16013.32333	17739.2337	14838.49434	15464.45478	18450.95247	16272.85821	20671.26358	16656.86604	13791.09916	14015.47179	16876.54455	18958.07503	14131.12482	18389.43646	23498.78097	17589.50198	15831.7193	16972.94562	19363.34111	16015.16742	18563.38336	17833.14863	16471.57264	15794.18842	18941.57045	17257.46339	10649.94976	20495.41514	17675.53614	17876.23082	16352.07517	18786.17755	22531.53936	14012.49554	14757.89772	17940.72722	13871.28988	17289.23875	18240.80968	16214.09167	19179.15362	17364.3939	14439.42891	13167.37859	17474.24604	19976.85824	16144.78233	19105.48269	22003.91749	17494.77296	16992.21818	17382.05596	20267.26471	17806.12913	18447.39084	18157.27042	17122.85814	15720.36534	18885.25593	15587.91202	9601.35579	18768.8819	17086.80349	10347.11051	8470.46079	11626.29777	21077.5738	13847.95907	13621.31829	13250.66047	13783.48828	10176.82542	16525.57156	14610.8687	18493.4845	14830.17893	13376.76881	13175.98737	12199.99478	16144.68201	15931.82146	14344.94462	18819.2259	16149.36641	8292.22551	11728.83782	13796.83919	9838.62314	13251.9139	12922.73295	12796.49968	13523.80919	13944.45018	18281.4987	13710.91058	15270.48867	13815.15407	11552.41406	8168.4796	12130.30225	20769.90465	13879.3211	13796.04453	13485.79937	14099.72975	10658.30154	16774.40847	13951.3935	17374.95245	13975.57639	12857.6262	13278.98306	12546.05077	14937.03882	17436.36179	14059.89991	18229.91757	15631.02255	9945.07392	12226.20722	14028.94868	10730.81162	12941.5128	12632.44463	13398.68999	13688.0452	13552.90342	19098.25413	11511.22858	15384.66702	13414.12535	8794.42089	8781.72324
90	120	15296.9078	17236.13048	20997.0878	27424.12805	26612.79874	28007.63486	30120.58766	21720.52559	20619.96778	17379.5162	18950.45914	23048.00674	19501.05687	26562.16511	25348.94945	19933.05507	15419.10724	23940.18796	16515.39141	18009.32697	20922.23761	27091.25007	28031.77283	25715.56526	28134.32998	23177.71404	21380.57212	18822.99835	22459.39233	20233.0691	17957.44336	25779.52656	13596.75007	10700.51688	13434.94279	9096.20866	8050.72145	13639.89441	25700.71458	25113.7906	27450.71674	33402.03041	19509.13373	24203.12342	27084.22439	22462.13909	22845.0623	28013.72743	23859.8981	29832.71692	27003.75558	21499.65158	21241.29248	26480.78422	27972.14783	22303.04068	26990.72179	34501.64905	26874.6104	23610.26718	25663.56339	30091.36833	24329.09904	28890.56398	27461.5666	25728.41529	23560.58866	27967.94322	25126.43105	15223.36027	30196.01904	27131.17464	25689.97399	23705.16999	28452.8747	34447.5938	19606.33963	23042.22986	27090.17225	21694.18053	25524.52028	28295.63678	24186.45154	29052.79616	26064.54574	22186.01662	20856.74518	27739.19429	28427.29548	23998.47251	28929.27173	34967.98055	26901.99195	25819.0556	26500.58314	30174.35025	27327.50663	28561.77343	27425.65801	26443.78199	23576.7032	28181.52832	22438.30109	14798.22176	27572.1817	25099.83318	17343.59132	12541.43561	18688.99605	30967.48969	20439.32161	20188.60724	20238.64616	21426.78097	15103.13586	25318.73965	22102.97303	27131.31445	23516.11904	21022.23645	22091.81718	19472.64851	24149.0836	27448.21567	21996.57484	28712.67943	25457.55584	13003.27076	18537.03819	21918.91963	15290.6261	21078.72727	20259.6133	19704.02125	20466.13732	21138.82088	26860.61569	19502.08898	21328.69679	21925.23454	17965.15347	13490.96335	18907.45279	31280.44904	21109.17369	20483.85774	20471.35115	22169.06897	17420.49454	26173.95667	21815.34039	27219.37859	21670.00923	20200.39412	20316.00471	19196.08083	22914.38072	26597.14867	22289.67029	27849.30218	24360.92859	14828.48672	18596.00957	21775.83058	16050.72046	20404.07588	19605.19793	20568.26697	21370.81896	21000.48244	27169.26609	18144.75791	23272.10314	20608.67977	13828.84268	13886.47987
120	150	19871.58322	21791.44986	27795.38917	35065.58609	34257.70996	34622.24752	39738.85309	29940.00837	26645.11792	22678.80753	24796.43659	28678.18214	26656.79014	33326.57752	32726.79674	24984.19007	27687.63228	28534.00957	21233.53308	25482.48476	26785.39154	35023.93262	36740.27018	32034.36866	37241.20809	28839.19521	27025.46296	25307.5795	31086.85557	24525.89513	23852.16284	31942.19468	12609.281	13389.094	18091.14732	11377.40726	13061.542	16719.82569	32160.50978	30936.9536	35162.94444	43445.03178	23857.22917	31453.10364	35417.81231	28833.16447	28008.60301	34982.28061	31666.06506	38171.45544	32530.89112	28098.95073	27741.61856	33666.26687	35757.495	29592.87911	35847.52476	43568.87606	35145.99021	31290.90035	33253.76218	38234.23695	32134.79422	36686.452	34687.66044	33038.3809	30339.4578	35363.69304	32926.13743	18598.23319	38123.6452	33430.99033	32636.01216	29678.4011	35591.14754	42610.84115	23666.32235	30162.14971	34614.76643	27727.63152	30915.36274	35351.95639	31300.20764	36417.32642	33364.11763	28431.18829	25829.8578	34937.82873	34890.77158	30364.8412	36148.09862	43973.94591	34119.05688	31991.03253	33137.6945	38098.47529	34502.67631	35850.25465	34341.96064	32874.54336	29756.00998	35520.79333	28620.81847	19103.20986	35465.30368	32133.68651	21936.0285	17237.45408	23451.78745	40527.99547	25752.72465	27442.94334	26473.3678	27784.88861	19012.82344	31434.98172	29120.50153	35995.26954	28934.07877	26938.9332	27022.67212	24989.32092	30809.56049	34388.48968	27651.63641	36056.39645	33450.56429	17797.9285	23644.76775	28054.72208	20460.26309	26471.72982	25593.50418	25675.55915	26561.54187	27125.98566	37110.11002	23507.30388	30527.91525	28170.63282	22406.52849	17054.29928	23353.89862	39540.79992	25743.69351	27996.53618	26150.65196	28625.8837	20859.664	32636.50038	29063.01842	34450.94968	27786.24052	25875.06131	26404.44568	24474.47471	29017.6764	33567.49211	28803.5371	36669.8494	30927.46751	18518.08445	23735.72792	27312.9165	20399.53195	26208.46231	24816.44624	25538.89909	27510.62282	26697.32485	35320.50969	23344.75018	29022.35887	27111.8419	17672.61784	17679.80766
150	180	20298.61473	24329.76412	28512.98838	35873.33704	35302.75646	37913.50139	41120.02137	30108.0417	28951.00108	22880.86765	26223.50469	28336.41139	25392.0114	33380.86741	34036.4396	25240.93392	23857.99201	28063.17977	20080.48324	23963.44699	27357.7302	35757.45732	36710.28418	32903.1457	39438.9144	29475.36916	27790.1525	24817.91185	30649.22765	25830.1212	26779.35742	30767.30369	11098.36891	13944.62395	16970.47612	12165.17379	11426.53408	16243.31318	32380.71077	31126.20769	36097.01685	45133.89555	24164.93285	31624.03663	35858.76368	30052.91844	29194.84125	36512.44161	31991.2569	39254.07676	34230.23516	28466.47317	27524.0024	34902.14497	35922.97	29108.05388	35875.62841	46172.6198	35265.76902	31421.55863	33957.40714	39269.67054	32900.94716	38582.315	35919.6608	34101.70984	30755.10373	36115.82616	33412.85833	20506.13749	37280.08263	33370.89421	34471.65544	29395.73795	36817.91851	43871.90835	24687.31636	30686.71472	35758.03303	28508.63587	32159.79062	36197.50835	31119.01817	37141.69497	34299.26979	29991.27925	27498.3761	34186.21867	36232.97957	31563.3435	37127.09692	43406.95739	34769.33394	33083.85007	34576.78598	38666.50825	35370.94514	36709.44482	35578.39555	34169.98989	31266.73465	36054.07553	29957.73994	19710.72867	37841.61093	32036.8213	22124.95526	17869.11202	24589.89442	42862.84454	28772.07819	28216.21034	26947.17855	30148.91141	19447.38771	33211.73924	30158.43735	36558.33382	30336.7708	27798.34096	27511.03651	25349.5251	30610.40838	35555.69136	28718.19608	38809.67516	33952.36435	17305.63252	24105.94783	29362.49823	20960.65576	28627.911	26993.40498	26919.98278	26818.63552	27698.34843	40074.21382	27117.61456	29400.44661	28824.32557	23822.38645	16388.62325	24682.92586	41173.70184	27553.98632	28083.68407	27203.79769	29976.40817	21169.70624	34052.72146	29573.21704	34873.54854	29225.26051	26880.94338	27285.84504	23582.27086	30324.61518	35112.47367	29327.47854	35891.4839	31658.51733	19060.42291	25248.12767	28442.80752	21286.39998	27265.14279	25768.63541	27030.62295	28874.14658	27660.97286	39222.00829	23630.14845	34832.62586	27614.97045	18224.0725	18224.48508
180	240	19091.82701	24063.41573	27994.38195	34879.17678	35677.70525	36021.50391	40720.71504	30856.23481	29010.72541	23448.22628	25500.83231	28666.04578	26725.37539	33506.14883	35361.55643	24705.09329	26510.58718	27959.55889	19333.42215	24614.2481	27227.27042	34891.34809	37470.55295	32835.04438	38409.22773	30483.98831	28166.74426	25434.79882	29456.37621	24368.63386	27122.91162	28713.61938	11453.83598	13121.26608	15732.72817	11142.38942	10516.41528	16402.94701	33133.28057	30053.47102	34390.71741	41498.22074	24391.21043	30815.15776	34717.66559	29888.52869	28297.75723	34959.433	31169.7817	36437.78553	33396.87754	29361.51622	26705.02816	34073.91645	34848.8545	28274.40962	35480.80047	42321.44934	34344.16533	31389.90622	33352.66978	37253.68832	32821.97159	36857.25052	34629.14528	33522.90573	30760.46516	34552.5077	31681.82082	20667.92765	37477.94701	33502.89655	33952.96318	28089.3839	35528.04973	41545.97588	24474.23989	30127.58293	34980.85296	27687.26909	29706.89835	34846.77739	30821.36637	35764.78669	33733.82014	29074.74261	26819.68141	33895.38152	34895.44639	29220.52237	35585.39482	41870.87442	34044.67066	32760.7368	33691.85345	37508.11523	33779.30081	36083.59745	34527.06941	33367.77642	30192.46389	34662.99263	29779.5944	19898.45159	34754.40093	31247.88918	22206.53198	16006.87315	24253.49501	38928.61593	28396.29489	27330.47098	26198.4111	29177.06671	19266.17288	31820.43973	30216.51845	34637.25384	30682.98576	28648.53591	26589.27737	25592.00302	30931.24027	36028.54741	29244.15972	35076.9582	33004.79959	17261.86462	24247.10207	27224.67617	21645.86847	27802.90901	26147.65975	25961.56366	27083.7518	27138.82148	37122.00589	26501.02281	29128.47062	28932.20055	23260.05286	16630.34668	23958.9286	39070.78852	27607.77217	27878.76994	27016.99636	29466.34028	20030.00895	33071.1759	29276.04816	34228.06101	28393.03026	26707.20041	27011.56532	23968.7316	28840.66894	33912.7836	28933.37666	34892.83436	31186.71433	18825.94902	24714.66529	27536.72946	20896.20691	26758.56367	25420.53636	26458.87518	28388.29066	26672.06967	38264.10747	23451.12648	31157.42449	27369.86341	18342.90552	18225.75808
240	300	17327.13063	21947.15927	26268.86543	32822.84078	33560.91563	34215.07489	38572.57747	29050.00119	27290.42522	20421.18244	23676.44736	26180.29389	25136.01784	29233.99596	32912.6149	24221.55384	22799.41939	25741.57882	18140.07441	23364.47293	25336.78937	32594.21156	35714.23882	31154.89873	36855.88368	29834.95108	27072.37019	26183.677	28193.54598	23212.66443	24383.24561	26820.81842	9944.87903	13115.09907	15424.55007	10410.6854	10561.69473	15791.94165	31248.68915	29162.85289	31581.41563	38439.5351	23448.79421	29662.94097	33140.87872	28328.64755	26601.28338	33298.724	29163.40247	34138.65336	31090.71834	27685.96869	25956.36622	31676.13759	32804.05852	26440.85202	33366.27363	39324.30531	32296.41682	28606.73239	31667.57092	35135.57652	31138.80671	34389.8729	32846.46263	31648.93146	29825.1053	32829.82097	30194.60369	21060.04438	34889.88458	31551.55026	32555.08319	27928.60766	33700.93847	37547.63116	22762.19689	29213.5019	33026.80255	26652.75539	28585.74912	32609.83663	28616.9355	33534.39606	31074.9965	28293.30857	25091.19911	32355.81639	32793.65726	28144.20013	32859.23408	37958.94036	31908.67632	30325.31136	31871.55111	35055.94019	31613.63275	33388.82859	32213.83992	31704.35597	29316.3005	32968.32488	27421.27929	18596.75867	32138.49784	29990.51389	21720.33752	16820.95192	23349.41215	36529.13339	27638.26875	26794.28309	25522.07006	27733.39985	18450.96877	30241.05994	28504.36492	33364.27132	28958.46243	27526.12002	25682.92158	24803.90366	29348.67426	32795.8085	28350.38307	33378.2656	30969.76178	17022.04251	24028.66595	26176.54189	20355.3203	26050.99646	25436.39932	25471.17764	26822.04123	26432.04179	34652.80232	26456.71991	28365.14971	27325.88087	23130.59752	16484.64612	23168.36052	35230.52975	27249.33344	27196.25648	25769.53344	28454.58784	19960.57196	30656.79636	28009.56411	31812.76571	26630.65745	26018.39527	26260.39258	23354.8395	27626.95238	32641.12772	27064.69455	32079.76614	29631.37056	18654.22743	23715.32138	26182.1672	19979.46639	25356.16216	24485.10608	25401.69307	27353.76001	25931.90318	34284.74999	23004.45156	28077.78605	26733.42585	17578.81711	17853.0484
300	360	16083.57654	22605.44618	24846.12911	31119.23029	32753.78147	31474.78734	35961.67884	28919.32495	25794.11506	18723.51618	22839.26918	26176.5779	24692.04555	28370.68398	30218.11929	22884.23048	22913.90572	23802.16969	16433.25651	23581.74468	24540.69402	30987.90525	34354.63209	29525.51008	34629.51693	28306.77863	25957.29105	24426.95046	27846.5973	23533.90755	23232.67114	24502.5348	9408.6184	12416.05863	12165.92364	10709.88686	11125.44179	15663.43123	30678.12584	27323.52313	29948.20975	35753.43322	23975.0258	28507.07181	30601.64491	27596.24828	25104.19064	30789.60191	26950.44714	32538.92547	29164.18761	26452.40697	25256.80324	30258.28766	30146.05105	24806.02635	29868.32377	35824.86395	30170.6012	27801.51296	29455.82035	32290.88486	28880.66167	31941.0272	30478.8198	29624.52933	28260.16648	30434.1123	27561.62831	20878.62827	32776.54174	29885.02063	29822.17956	25574.7518	30986.57362	35076.12847	23086.52641	27695.3626	30696.0357	25316.98861	26492.00627	30575.3817	26454.18566	31306.54503	29583.8904	27087.71425	24588.11937	30150.27662	30588.16195	26115.74482	30598.185	35551.06746	29518.87172	29358.2023	29956.76162	32313.03611	30053.44194	31516.4236	30299.19491	29925.58726	27593.3624	30499.04308	24993.64409	18945.9651	30686.20991	28360.75367	21139.4035	16053.15872	21792.69535	33469.02061	28045.45782	25782.12605	23791.71597	27133.4485	17375.72093	28486.57056	26767.43334	30577.80642	27145.68891	26617.10087	24718.24768	23756.71843	26870.21669	30882.86515	26037.70219	30160.02512	29194.31753	16204.34214	22385.40635	24766.10524	19671.26358	24876.81497	24085.25699	24237.47098	25561.86969	24655.36678	32731.71678	26676.31	26275.85144	26481.53487	21796.26893	15889.33791	21989.41397	33664.81152	26743.62503	26142.58893	24440.17002	27040.77517	18548.95936	28804.74774	25879.42337	29983.54851	25261.68166	25213.2483	25645.67551	23049.57282	25689.50468	30584.7118	26173.903	29904.82282	27654.10841	17486.16599	23223.97927	25005.58248	19466.42004	24573.56625	23396.33954	24681.93936	25976.82202	24586.44095	32178.74213	24418.70077	26857.50873	25261.32716	17384.39758	17365.44492
360	480	14731.12959	21217.72104	24487.59024	29207.53061	32187.59897	29852.79156	34394.20186	28823.82526	26526.70642	18100.83951	22488.50769	25373.06101	24852.36465	26180.16444	29725.73907	23300.17642	22667.568	21715.23318	15149.84246	22191.54726	23966.84935	29304.60928	33621.33165	27594.52652	33179.71507	27867.21957	24954.92053	24030.18421	25475.71373	23473.74196	25874.8208	22597.63096	9949.80407	12658.22093	12545.71128	10661.02751	11321.10911	15030.24992	28488.30822	25896.23379	27842.27265	33019.76243	23094.38561	27144.86673	28768.78303	26732.12438	24422.82892	28925.92838	26079.77526	30302.44385	28218.62537	25516.16656	23728.31911	28384.36071	28555.00089	24296.73306	28552.53276	32483.31103	28148.20388	26701.27972	28053.38103	30399.45414	27619.97809	29766.3447	28677.28549	27551.02426	27143.61922	28810.11899	26206.85693	20407.5525	31187.87573	28486.60586	29561.62588	24479.30706	28765.60281	32319.62467	21987.42538	26364.69711	28872.87981	24970.25539	24966.29655	28799.08391	25484.14991	29253.38917	28207.58243	25928.83408	23483.61933	28262.95498	29021.59197	24880.03409	28757.9335	31327.54993	27710.50387	27344.72083	28134.81697	29723.27133	28598.15201	29325.4773	28119.07104	27751.23282	26847.97628	28537.47966	24586.07685	19224.87132	29605.88364	27707.20451	20334.15469	16328.61149	21498.68334	31289.63652	25897.96447	24543.88831	23327.92993	26117.29486	17754.27708	26724.15741	25756.4143	28614.82182	27266.07303	25959.59698	23660.6545	22701.50776	26292.38017	29657.98859	25403.255	27453.44928	27701.9051	16359.09859	22097.74853	23855.39669	19846.19132	23796.49325	23428.91307	23263.71845	24488.88634	23870.16682	29883.28998	25119.165	25692.4103	25674.48264	21228.30186	15848.92063	21362.92236	31106.077	26690.1612	24543.54318	24054.62547	26568.76113	18615.68956	27431.71653	25161.22751	28027.15723	24910.67449	24273.55862	24563.47227	21755.90019	25679.64457	29087.92172	24952.91523	26827.64924	26128.55758	17449.93735	22139.90282	23352.8847	19682.96288	23512.84444	22383.88203	23425.88452	25334.89687	23542.13542	30431.7009	23898.7379	27019.09806	24985.07963	16918.60077	17023.37642
480	600	13708.32682	21367.72333	23726.99726	27523.23165	31382.10209	27850.40129	33267.31311	28237.42358	25033.40211	16873.04364	22423.97503	24554.5697	24366.48097	23856.97902	29651.69694	23166.67504	24919.31232	20127.042	13982.17296	21509.94556	23539.00318	27875.57171	32344.39871	25722.82832	31620.24069	27590.35035	23929.06034	25441.24173	25731.59234	23663.92256	24319.24829	21422.36286	11224.28116	13875.52156	12280.04846	10809.47942	11919.62752	15265.97073	27916.58367	25868.32348	26259.14058	30244.44393	23284.58725	26648.29511	26918.96516	25969.33298	23031.85765	27106.70416	25106.77239	28630.94362	26828.60337	24780.97059	23497.28182	26703.93806	27083.27197	23631.08679	26720.24001	30167.02477	26334.59714	26248.81	26543.94211	28226.37569	26927.12817	28064.51739	27202.15861	25797.53578	26167.50844	27044.66278	25020.30199	20932.2167	28427.52476	27474.65735	27770.55248	24522.00053	27373.66753	29335.02146	23100.27624	25685.33249	27062.16256	24491.29618	24164.74221	27308.68936	24365.95921	27785.17472	26704.79	25455.97467	23917.13391	27054.93677	27117.38991	24015.51182	26510.31337	29687.50711	25975.90764	26947.33491	26878.83979	27795.54425	26723.93515	27517.33748	26551.22144	25880.13446	25819.46296	26808.76372	24004.10865	19886.60302	27737.68643	26114.59615	20847.2421	17116.98037	21166.97605	29329.23154	25956.07248	23960.53503	22470.02194	25087.30508	17719.8195	25596.42981	24754.12587	27051.87959	25591.84483	25170.8021	23385.99498	22035.75304	25088.25638	27660.37826	24236.00925	26327.80599	26179.81528	16930.35441	21817.92156	23085.84905	19763.59571	23474.94092	23103.5121	22733.3473	24453.92268	22934.57801	28548.85262	25458.97777	24646.75769	24957.78558	20619.72141	16200.44704	21329.40997	28484.88687	26736.22524	24084.82905	22936.73073	25466.88841	18403.97195	25936.77969	24150.14697	26467.58252	23787.6809	23617.45452	24150.41477	21271.18464	24014.96901	27513.53921	23946.4588	25567.38092	24952.0253	17290.80673	21992.28979	22629.31942	19223.62576	22993.72509	22191.56175	22645.84909	24718.69225	22390.05916	28939.55484	24034.96661	25812.21109	24109.66312	17020.17152	17283.00394
600	900	13068.8543	19887.16186	23273.39196	25367.96417	30073.73567	25353.93259	30479.1385	27854.85414	23819.08839	16015.13103	22414.91284	23314.87964	24689.03894	22001.18735	28156.82933	23724.10818	24694.9881	18378.816	13774.83326	21402.61735	23072.00865	25622.59054	30544.13417	24055.96105	29281.63732	27651.02702	23395.68147	24272.20476	24461.97136	23744.90769	23910.02808	20292.94877	10769.49205	14974.72945	12854.3207	11266.77223	12300.54285	16181.13625	26555.20292	24518.35788	25037.93628	27380.69543	23310.58608	25098.44564	25073.80562	24649.78189	22686.72709	25206.8363	24255.54485	26523.63065	24993.94791	23760.91253	22354.1834	24940.00013	25397.89754	23036.03803	25008.90346	27398.24625	24516.81896	25170.79035	25155.68117	26162.15243	25200.65276	26466.82897	25342.18628	23812.10112	24737.2261	25197.9462	24170.86384	21525.39281	27480.33264	26213.23525	26164.58835	23582.8534	25403.34122	26793.69397	22171.00502	24140.65841	25105.04379	23390.70262	23749.98032	25246.37157	23179.84069	25778.96825	25004.24746	24012.41274	22492.78308	24737.48629	25538.97427	22642.48671	24818.90087	27256.28208	24064.30274	25704.77773	24890.74688	25679.07014	25518.35707	25707.23947	24589.5347	24197.85492	24047.69672	24915.9046	22780.30018	20076.30003	25984.42985	25188.86885	21158.20498	17399.10802	21329.79604	27037.92203	25124.54888	22739.68032	22585.73561	23754.17275	17847.03502	24214.0074	23726.42135	24837.79631	24773.88972	24410.99998	22720.52373	21549.37453	24222.3925	26477.98862	23640.33711	24054.38142	25141.97321	17641.08559	21776.30328	22270.16755	19864.61793	23296.64281	22861.92122	22199.37543	23956.97121	22746.26866	27014.59219	24939.48596	25484.4572	24626.19344	20952.24705	16602.6022	21344.6522	27045.78188	25237.63077	22848.23331	22578.56817	24492.02732	18808.07219	24960.17204	23401.39514	24588.13733	23031.29172	23187.46171	23255.31537	20946.58891	23370.13396	25733.88887	23233.1867	24266.37084	23795.00995	18099.31349	21682.032	22138.48545	19351.95352	22712.28207	21980.83967	22437.79427	23638.23155	22392.30106	27892.68824	23530.70929	24514.34024	23718.20305	17536.44842	17688.94419
