frame_start	frame_end	Left-Cerebral-White-Matter	Left-Cerebellum-White-Matter	Left-Cerebellum-Cortex	Left-Thalamus	Left-Caudate	Left-Putamen	Left-Pallidum	Brain-Stem	Left-Hippocampus	Left-Amygdala	CSF	Left-Accumbens-area	Left-VentralDC	Left-choroid-plexus	Right-Cerebral-White-Matter	Right-Cerebellum-White-Matter	Right-Cerebellum-Cortex	Right-Thalamus	Right-Caudate	Right-Putamen	Right-Pallidum	Right-Hippocampus	Right-Amygdala	Right-Accumbens-area	Right-VentralDC	Right-choroid-plexus	AirCavity	Skull	Vermis	Pons	CSF-ExtraCerebral	Head-ExtraCerebral	ctx-lh-bankssts	ctx-lh-caudalanteriorcingulate	ctx-lh-caudalmiddlefrontal	ctx-lh-cuneus	ctx-lh-entorhinal	ctx-lh-fusiform	ctx-lh-inferiorparietal	ctx-lh-inferiortemporal	ctx-lh-isthmuscingulate	ctx-lh-lateraloccipital	ctx-lh-lateralorbitofrontal	ctx-lh-lingual	ctx-lh-medialorbitofrontal	ctx-lh-middletemporal	ctx-lh-parahippocampal	ctx-lh-paracentral	ctx-lh-parsopercularis	ctx-lh-parsorbitalis	ctx-lh-parstriangularis	ctx-lh-pericalcarine	ctx-lh-postcentral	ctx-lh-posteriorcingulate	ctx-lh-precentral	ctx-lh-precuneus	ctx-lh-rostralanteriorcingulate	ctx-lh-rostralmiddlefrontal	ctx-lh-superiorfrontal	ctx-lh-superiorparietal	ctx-lh-superiortemporal	ctx-lh-supramarginal	ctx-lh-frontalpole	ctx-lh-temporalpole	ctx-lh-transversetemporal	ctx-lh-insula	ctx-rh-bankssts	ctx-rh-caudalanteriorcingulate	ctx-rh-caudalmiddlefrontal	ctx-rh-cuneus	ctx-rh-entorhinal	ctx-rh-fusiform	ctx-rh-inferiorparietal	ctx-rh-inferiortemporal	ctx-rh-isthmuscingulate	ctx-rh-lateraloccipital	ctx-rh-lateralorbitofrontal	ctx-rh-lingual	ctx-rh-medialorbitofrontal	ctx-rh-middletemporal	ctx-rh-parahippocampal	ctx-rh-paracentral	ctx-rh-parsopercularis	ctx-rh-parsorbitalis	ctx-rh-parstriangularis	ctx-rh-pericalcarine	ctx-rh-postcentral	ctx-rh-posteriorcingulate	ctx-rh-precentral	ctx-rh-precuneus	ctx-rh-rostralanteriorcingulate	ctx-rh-rostralmiddlefrontal	ctx-rh-superiorfrontal	ctx-rh-superiorparietal	ctx-rh-superiortemporal	ctx-rh-supramarginal	ctx-rh-frontalpole	ctx-rh-temporalpole	ctx-rh-transversetemporal	ctx-rh-insula
0	30	52.43482971191406	42.83184814453125	35.152347564697266	23.846628189086914	123.7448959350586	107.3231430053711	72.71517181396484	89.10118865966797	139.5528106689453	213.8159942626953	-5.913422584533691	101.36854553222656	58.1770133972168	-361.8689880371094	54.10969543457031	66.59270477294922	84.76959228515625	28.07832145690918	120.36563110351562	230.66769409179688	-11.405130386352539	132.05374145507812	56.719085693359375	-39.93168640136719	127.74480438232422	-110.34473419189453	48.774391174316406	75.36493682861328	161.9412384033203	29.557388305664062	49.284908294677734	59.017333984375	-45.76763916015625	232.53872680664062	105.35719299316406	-5.853883743286133	287.18731689453125	23.915678024291992	56.943790435791016	18.8247127532959	76.53516387939453	93.37742614746094	59.3701171875	2.597059726715088	262.9852294921875	81.6538314819336	250.8674774169922	14.123785972595215	119.71150207519531	93.13027954101562	-3.9584672451019287	72.08150482177734	86.52007293701172	48.59050750732422	63.225765228271484	-7.131078243255615	15.392319679260254	23.09342384338379	59.107425689697266	27.080894470214844	45.757755279541016	66.55551147460938	-87.99055480957031	118.46471405029297	-91.57582092285156	91.66171264648438	118.00641632080078	71.02363586425781	52.89983367919922	22.22100257873535	199.0452880859375	34.269866943359375	59.93471145629883	71.06576538085938	331.3733215332031	14.537956237792969	141.96963500976562	18.89976692199707	206.49510192871094	37.16798400878906	104.60218811035156	70.10663604736328	-8.776128768920898	125.58536529541016	120.69611358642578	91.62213897705078	99.84965515136719	-9.122773170471191	37.31877899169922	62.888282775878906	-81.64569091796875	62.07523727416992	75.87454986572266	22.575353622436523	32.903541564941406	64.12810516357422	-77.63352966308594	626.7057495117188	18.05108642578125	98.95860290527344
30	60	1338.82275390625	1567.1497802734375	3863.2919921875	4713.12158203125	6158.2275390625	6383.59814453125	3102.0634765625	3841.23046875	5371.51025390625	2056.41845703125	969.7841186523438	5030.8486328125	3614.68701171875	14188.7109375	1359.1875	2010.8240966796875	3703.246826171875	5159.35107421875	5431.48583984375	6991.60302734375	2047.4940185546875	3989.72900390625	2985.066162109375	-1995.286865234375	4268.5458984375	9333.478515625	1108.3826904296875	1100.9744873046875	6235.99169921875	2394.744873046875	3685.013916015625	810.1702880859375	5471.66943359375	5386.333984375	6871.69384765625	7678.3056640625	4937.22021484375	5023.923828125	4511.123046875	4947.0947265625	4840.05517578125	5379.7412109375	7274.4794921875	5634.41357421875	6962.3037109375	4698.02587890625	4095.98046875	5258.2900390625	6775.35107421875	5141.12939453125	6525.00537109375	8484.6669921875	5659.94287109375	6539.97607421875	5244.93896484375	6869.63037109375	7999.173828125	5552.056640625	6147.1552734375	4157.64697265625	6551.49365234375	5457.220703125	7978.4599609375	5951.77001953125	10308.3720703125	5232.3369140625	6527.1123046875	5411.1591796875	5509.646484375	6141.87939453125	4431.03955078125	4937.25	4409.2578125	4304.12890625	6019.97021484375	5082.73974609375	8204.11328125	6077.8388671875	7301.26513671875	4877.2421875	4074.519775390625	5451.18994140625	4526.47900390625	5904.291015625	5853.68408203125	11043.8330078125	4884.3212890625	5128.20751953125	4840.2685546875	6062.33984375	7051.50634765625	5315.3515625	5641.90234375	4205.9384765625	5359.03662109375	5139.4873046875	7243.09130859375	5903.97900390625	9192.806640625	6149.04345703125
60	90	4530.21826171875	7523.62060546875	15127.359375	20293.552734375	24880.666015625	27632.91015625	6784.74267578125	13589.79296875	18310.37109375	16090.181640625	3146.0673828125	11464.02734375	14152.5634765625	49829.86328125	4896.52587890625	7098.4501953125	15315.6015625	19359.2578125	21931.052734375	26217.74609375	13118.056640625	17174.3125	19126.751953125	9384.51953125	13604.5546875	20263.404296875	3899.93359375	3812.088134765625	13587.6201171875	11576.8759765625	10002.51953125	2731.321533203125	21371.78125	20883.404296875	26618.375	25055.73828125	13703.0537109375	21323.697265625	20234.5390625	19518.306640625	20401.173828125	21383.943359375	22413.74609375	21116.08203125	29958.482421875	18087.67578125	13008.9970703125	22150.158203125	25087.2421875	19848.79296875	23412.529296875	37473.83203125	22237.74609375	22643.5546875	20433.1796875	23811.03125	24811.642578125	21349.095703125	23161.12890625	18268.87890625	20788.068359375	20260.185546875	27515.841796875	24074.515625	33919.91015625	21098.9921875	20452.482421875	22162.681640625	23315.017578125	26234.94921875	15090.0703125	19150.3203125	17788.1640625	17941.97265625	21953.009765625	20992.517578125	31729.916015625	23551.927734375	24661.8359375	17852.583984375	12195.33984375	20022.013671875	19704.904296875	21085.84375	21353.396484375	34996.2421875	19999.25	20438.27734375	18974.62890625	20742.984375	19573.96484375	22044.41015625	22231.484375	18831.31640625	18099.041015625	18792.6328125	22171.1875	21635.498046875	34813.0625	22055.72265625
90	120	8630.9794921875	14274.052734375	29294.27734375	38121.12109375	44460.6875	46345.515625	19871.208984375	24159.736328125	35544.34375	22436.6484375	5129.27734375	22192.802734375	26135.458984375	73744.859375	9410.744140625	13418.82421875	29241.3203125	35305.88671875	43411.734375	51885.015625	24904.013671875	32719.642578125	24414.662109375	15866.7529296875	23521.080078125	48315.61328125	7168.93896484375	6455.7626953125	24182.333984375	19736.35546875	17441.5234375	4731.18310546875	38653.35546875	42269.29296875	47010.671875	43340.88671875	23811.134765625	40934.94140625	37154.37109375	42686.96484375	40783.234375	40350.00390625	44577.90625	40299.8046875	53018.21484375	35854.359375	27997.41015625	43534.046875	44466.03125	35335.14453125	44669.65625	66272.5703125	44005.578125	41734.0703125	40062.78515625	43915.3125	41937.58203125	42603.66796875	43133.11328125	35714.36328125	38023.4375	38014.05078125	48085.60546875	47457.28125	64187.33203125	39837.0625	39262.72265625	40396.19140625	44739.31640625	46243.7734375	38985.0234375	34547.25	35313.9375	39468.9609375	35714.29296875	39852.7421875	58393.56640625	46109.85546875	54608.7265625	38463.73046875	21510.162109375	37419.91015625	38534.99609375	45084.4609375	41385.6796875	60693.375	40080.328125	41421.08984375	37031.2734375	43500.62109375	28175.0625	42935.44140625	43247.10546875	36928.98828125	34174.0	35789.8359375	43780.04296875	42496.62109375	52663.95703125	33393.140625
120	150	12619.0947265625	20309.373046875	42974.26171875	54566.7265625	65371.875	70682.2109375	30179.79296875	35583.47265625	49409.890625	35750.53125	6037.6044921875	37916.7734375	34193.296875	123201.71875	12821.0888671875	18496.486328125	43271.765625	54634.265625	63674.28515625	74501.234375	30193.28125	44167.52734375	37131.5234375	34356.42578125	35495.984375	63327.75390625	10554.1376953125	8723.9716796875	37087.671875	31662.427734375	21855.3125	6558.60205078125	53612.6796875	55554.1484375	71843.640625	66589.9375	42598.28515625	57386.20703125	54410.62109375	61581.078125	50430.7265625	61622.87890625	66044.6796875	60386.9921875	69987.9609375	52423.54296875	37521.921875	59885.53125	63964.48828125	53137.01953125	62774.81640625	100334.7109375	62406.83203125	65754.265625	57736.7734375	63180.71875	68348.453125	61317.2109375	61047.7734375	55167.2578125	54388.01171875	56195.8125	59044.79296875	70439.2734375	81607.984375	49201.109375	57709.2578125	58617.484375	65612.890625	68665.109375	49003.8359375	47809.48046875	52221.53125	56506.65234375	52599.64453125	60774.38671875	81236.4375	67096.8984375	79639.7890625	55036.46484375	32484.095703125	56379.12109375	58795.62890625	62173.23828125	61029.57421875	94019.53125	57651.75390625	58870.97265625	55180.37109375	59399.34375	43064.1328125	63037.12109375	63974.1484375	54935.24609375	49106.1953125	52958.96484375	65533.0625	70192.71875	77165.5546875	46486.14453125
150	180	14543.7177734375	22113.43359375	49881.9296875	59123.79296875	72345.6640625	76405.2578125	30252.80078125	38181.85546875	54115.08984375	45028.26171875	5936.64013671875	41386.22265625	34888.1796875	137805.921875	14417.296875	21568.29296875	49693.2734375	59526.64453125	71103.109375	84462.3828125	32077.287109375	51988.26171875	41858.203125	35658.3046875	35230.9296875	58971.890625	11416.837890625	9289.515625	39075.0546875	34728.578125	21271.330078125	7180.48095703125	60548.55078125	64146.9296875	79137.734375	69471.921875	43065.703125	61834.73828125	62308.0703125	72062.3828125	52910.0859375	70399.671875	72506.453125	69194.484375	80558.2265625	59609.00390625	41263.0234375	66100.2109375	74420.65625	58095.875	72657.7890625	111339.953125	70002.2578125	69276.3046875	65313.484375	71215.203125	68897.1171875	70776.171875	68097.9375	64437.625	59634.53515625	62270.640625	69064.515625	73566.59375	102508.25	59179.06640625	62955.05859375	67545.8515625	74240.9140625	82519.75	59980.734375	53935.125	59773.12890625	64698.01953125	60951.375	70731.15625	90665.375	76795.265625	90351.1484375	67117.6640625	38025.63671875	66839.6171875	69033.9296875	70444.6328125	68753.375	98696.2265625	63867.859375	65771.0625	64055.109375	67176.84375	50863.0703125	72165.328125	71663.8671875	63999.984375	55875.66796875	58604.3984375	72978.8984375	77158.640625	93280.0078125	51832.36328125
180	240	15534.1474609375	22986.109375	50796.62109375	62202.359375	76108.359375	80597.625	31159.322265625	40190.01171875	53581.18359375	42029.671875	2446.2412109375	30727.671875	37955.78515625	118068.875	15508.490234375	22499.857421875	51172.3125	62035.80859375	72805.9296875	79474.453125	39734.234375	47059.4609375	54698.87890625	25490.0625	37145.8359375	75228.296875	11578.09375	9524.203125	46852.1484375	35376.1640625	19532.52734375	7505.162109375	60920.12109375	63043.77734375	78631.109375	69357.3828125	50891.484375	64258.8828125	62886.7421875	74624.703125	59997.51953125	72590.8828125	72914.296875	66661.2421875	83799.84375	60420.7265625	42513.5859375	65273.015625	75002.1171875	55163.25	72308.21875	114348.0234375	73248.921875	71097.15625	67562.953125	73183.3359375	67142.265625	70668.9921875	71014.7578125	65129.82421875	63277.87890625	63325.51953125	67811.1875	77716.9921875	89416.9609375	56387.51171875	62148.53125	66798.0	74279.8359375	81247.71875	59746.375	58767.8515625	61534.51953125	68505.078125	55036.25390625	72421.265625	89905.8359375	75626.875	94832.1484375	66257.8515625	35776.890625	67022.8046875	66017.0546875	70781.3984375	71074.7265625	102098.8671875	65670.046875	71290.3671875	62961.4921875	66818.6171875	53936.1640625	74480.8359375	73389.4921875	65767.9140625	58712.92578125	61030.71875	71874.4921875	82145.875	85888.8125	57308.703125
240	300	15761.8046875	23356.845703125	49822.71875	61800.18359375	71555.6640625	76067.640625	33952.40625	39857.390625	54350.71875	39439.55859375	3102.35302734375	31624.943359375	36605.8828125	86838.7109375	15879.6416015625	21585.115234375	49380.16796875	60952.98046875	69007.1328125	79715.0546875	39589.703125	44104.421875	52870.546875	20990.5390625	37948.1875	53652.1015625	10911.6416015625	9596.04296875	43154.484375	33841.6953125	17871.5390625	7757.77197265625	61855.84765625	60456.66015625	77021.7734375	66792.59375	51223.7890625	65273.37890625	60510.2890625	73978.09375	52673.2578125	68940.2890625	69763.4140625	65072.74609375	80882.140625	59213.2265625	40265.328125	63615.6015625	69593.859375	52906.03515625	66872.8125	104864.25	69239.1875	69685.3515625	63847.01171875	68738.1953125	74059.5078125	68329.171875	66866.0	62679.36328125	61496.6953125	61140.41015625	62293.1328125	79797.578125	85539.6953125	59055.15234375	61858.41015625	67652.5546875	72176.0625	78692.390625	55106.48828125	54572.56640625	59825.16015625	68769.625	56909.1953125	68420.3984375	87851.96875	72280.234375	92694.0078125	63325.53515625	39016.98828125	63387.35546875	62878.0625	68268.6484375	66585.8203125	96517.875	61926.66796875	66469.9765625	60828.9296875	62848.984375	50096.9140625	71025.03125	69348.78125	62517.32421875	57943.82421875	59145.87109375	68252.2421875	81785.484375	78335.421875	54286.95703125
300	360	16562.052734375	23571.228515625	47126.15234375	58162.6328125	67201.9765625	69839.8828125	32545.634765625	36225.50390625	51892.54296875	40959.234375	1562.151611328125	32601.4921875	36628.81640625	86124.0546875	16389.611328125	21801.93359375	47962.02734375	59036.02734375	63554.0078125	73291.0390625	42334.81640625	42175.96484375	49786.53125	30658.828125	35517.5078125	67816.4140625	10843.87890625	9458.517578125	34391.16796875	33592.87109375	16394.64453125	7924.30517578125	58163.24609375	61717.32421875	69205.7265625	57238.6015625	49364.40234375	59550.6171875	55819.34375	69385.2109375	50040.515625	63568.8515625	63825.9296875	59446.99609375	77035.78125	54954.55078125	40351.07421875	58039.56640625	66278.75	49359.37890625	63130.640625	91448.2265625	62660.19140625	69532.328125	58884.65625	61932.7109375	67839.4140625	63165.65234375	61831.6640625	57256.1796875	57738.9453125	57119.7109375	51594.12109375	72010.8046875	74375.6953125	52273.01171875	58077.859375	60996.1796875	65833.078125	71286.1875	54376.5	49877.34375	55213.1484375	63672.70703125	54421.75390625	63755.08203125	81668.25	65842.15625	86373.96875	59666.52734375	38493.49609375	59689.6796875	59367.80859375	62310.92578125	61742.9609375	80924.3671875	58306.67578125	61865.3671875	55849.46875	58219.37890625	50645.72265625	65789.953125	63396.94921875	57804.70703125	53702.015625	53535.4765625	59686.4375	78202.0625	70155.4609375	53149.6171875
360	480	16348.28125	22457.494140625	42884.5390625	54879.41015625	57169.875	60476.8515625	34800.63671875	35180.9140625	44241.35546875	37078.7265625	10.864791870117188	30508.603515625	34443.23828125	74001.0703125	16404.095703125	20993.09765625	42789.234375	52438.71875	56909.28125	62590.1875	41916.2265625	38630.22265625	44827.4921875	30677.951171875	34394.4296875	47325.796875	10207.38671875	9374.13671875	40070.0078125	30489.619140625	14010.498046875	8087.46044921875	50525.9609375	53866.421875	59004.796875	50610.09375	45207.96484375	52298.38671875	48781.7421875	62128.15234375	42897.83984375	54010.546875	57130.91015625	49005.95703125	68648.2265625	47806.48046875	37751.62890625	51850.26953125	57281.72265625	43580.60546875	53959.0625	74275.203125	54926.30078125	55818.15625	51301.5078125	53575.41796875	64080.99609375	54935.78125	54758.52734375	49571.4921875	51258.68359375	49713.19140625	47428.19140625	68431.84375	61343.28515625	51836.0703125	48774.86328125	51521.9375	56741.7890625	61827.8984375	47215.06640625	47236.86328125	48036.28515625	57643.83203125	44629.43359375	53405.72265625	72799.7421875	57290.34765625	75289.453125	52819.359375	32884.1484375	51092.09765625	51591.77734375	51576.046875	52562.8984375	68918.3671875	49816.19140625	49532.5703125	49036.8984375	49145.9921875	45399.01953125	58023.15234375	55695.1953125	50427.171875	48283.74609375	47129.78125	54815.46484375	82289.1953125	58455.83203125	48330.62109375
480	600	16745.419921875	21882.583984375	36461.21875	46137.30859375	46732.3125	50229.29296875	31344.73828125	30801.630859375	37657.20703125	35723.41015625	-684.416748046875	28979.52734375	32535.927734375	54302.66796875	16272.703125	20598.279296875	36611.546875	47060.40625	45222.91015625	49563.0	36116.94921875	29700.109375	43972.2578125	17635.052734375	32467.109375	48247.171875	9444.232421875	9163.8046875	33123.71875	28617.71484375	12008.6484375	8343.671875	41718.76171875	43632.109375	48221.078125	39013.99609375	35291.44140625	45507.71875	39114.6015625	51359.23046875	33732.36328125	42774.80859375	47975.12890625	40635.46484375	55935.55078125	40218.37890625	31788.748046875	41472.5390625	45512.453125	37485.29296875	44078.54296875	57848.50390625	44398.5859375	42927.52734375	41904.11328125	43472.20703125	51890.4375	44452.765625	44233.76171875	41370.41015625	43184.2734375	40149.25390625	38348.7890625	64947.11328125	52824.35546875	44247.15625	39740.0703125	46486.2890625	45581.13671875	48963.15625	41085.859375	40567.94140625	39630.30078125	48189.91796875	40632.30078125	45363.7734375	61227.94140625	46045.796875	63260.30859375	44646.7890625	31938.083984375	43491.33984375	42331.70703125	43597.66796875	44673.1015625	51445.1328125	40592.796875	42484.13671875	40825.8046875	40526.609375	42288.09375	47735.109375	46360.21875	42165.5	40461.78125	39333.62890625	43256.77734375	73343.96875	40856.05078125	44866.21875
600	900	16814.251953125	21395.044921875	27817.359375	36231.76171875	33395.25	33842.13671875	31311.009765625	26026.0390625	29176.41796875	31334.841796875	-1662.3328857421875	23817.978515625	27115.107421875	37737.33203125	15904.826171875	20209.255859375	27867.943359375	37287.80859375	31971.37890625	34807.59765625	32934.890625	23883.98046875	37798.12109375	21347.130859375	27997.26171875	27554.662109375	8610.0810546875	8698.7568359375	21760.349609375	24198.2734375	8928.4296875	8639.19140625	31829.458984375	33302.9453125	34856.9765625	28534.314453125	29320.8046875	34537.26171875	28610.5703125	39709.390625	26065.37890625	31079.853515625	34588.94921875	29204.658203125	41892.3046875	29235.63671875	24691.033203125	30362.0625	32891.9921875	26616.12109375	31788.00390625	35309.0078125	31808.98046875	31937.13671875	30806.5625	30730.66796875	37816.17578125	32230.900390625	32423.23828125	30733.42578125	33894.5546875	28735.69140625	29618.66796875	53481.55078125	37235.203125	36323.203125	28809.34375	37791.14453125	34144.98828125	35687.87890625	33952.6875	30236.447265625	30159.07421875	36942.046875	28034.076171875	32979.98828125	44759.19921875	33970.10546875	49740.21875	33669.09765625	25729.19140625	30077.88671875	31728.7890625	33224.4375	33874.22265625	33272.6953125	30132.79296875	33659.37109375	31256.642578125	29466.162109375	37714.671875	35850.05078125	34765.95703125	31052.8515625	30907.55859375	29858.39453125	25295.76953125	62292.72265625	28705.443359375	35819.36328125
900	1200	16064.875	19372.65234375	19320.109375	25938.927734375	20454.474609375	21682.951171875	27677.294921875	21166.96484375	21921.326171875	24814.126953125	-2178.356689453125	15358.0791015625	22315.453125	34590.484375	15728.6025390625	18599.525390625	19712.994140625	26621.59375	21960.68359375	21943.271484375	29200.232421875	17233.1015625	27995.40625	12805.63671875	23396.318359375	20593.623046875	7685.77978515625	8409.5419921875	18417.1015625	20470.42578125	6183.27587890625	8863.56640625	21726.57421875	24551.1171875	24646.505859375	20543.7578125	22027.296875	25516.166015625	20442.962890625	28123.169921875	19759.759765625	21161.78125	25996.966796875	20829.177734375	30994.220703125	20456.666015625	19224.17578125	21462.853515625	23305.9296875	19744.248046875	23216.513671875	22376.65234375	22220.015625	23306.41015625	22379.7265625	21221.564453125	28054.92578125	23127.78515625	22834.462890625	22110.83203125	24122.470703125	20735.220703125	17777.6484375	38814.203125	26285.203125	29924.755859375	19939.0	27738.259765625	24350.642578125	25323.01953125	24464.94921875	22793.482421875	21416.365234375	26481.865234375	20250.6171875	22263.03515625	32447.4765625	23231.87890625	35260.76953125	23776.697265625	18103.037109375	20430.3203125	22458.462890625	24039.576171875	22265.24609375	21330.28515625	20496.796875	23823.0546875	21672.435546875	20284.673828125	24864.91015625	24888.884765625	24584.646484375	21832.529296875	22203.412109375	20979.85546875	18650.21875	50442.61328125	20534.9375	28397.73828125
1200	1500	15505.1630859375	18235.58984375	14640.8837890625	19968.23828125	15278.3642578125	16078.9404296875	23617.986328125	17530.396484375	16174.3701171875	19374.509765625	-2207.36181640625	7092.93798828125	18805.73828125	30228.75390625	15337.2666015625	17553.244140625	14961.62109375	20550.162109375	16163.587890625	15597.212890625	23201.611328125	13842.755859375	23061.109375	5155.88916015625	18583.365234375	13596.7373046875	7048.1650390625	8052.853515625	13502.47265625	18151.556640625	4929.1796875	9005.0244140625	18279.54296875	20641.2734375	19777.029296875	16070.5888671875	18371.140625	20201.328125	16291.47265625	22676.767578125	15691.515625	16843.3671875	21139.69140625	16494.34765625	24621.609375	15812.888671875	15251.828125	15192.833984375	18936.41015625	16801.791015625	19015.705078125	16402.412109375	17615.814453125	19801.8046875	17251.494140625	16614.021484375	22462.703125	17868.037109375	18080.828125	17257.541015625	18918.923828125	16889.474609375	15788.451171875	31473.822265625	21157.396484375	22960.083984375	16714.1484375	20941.619140625	19182.44140625	19457.794921875	17251.94140625	18407.962890625	17018.21484375	20624.9375	15443.6689453125	17577.958984375	25305.787109375	17708.572265625	27699.7421875	18466.58203125	14263.005859375	16122.6923828125	17439.875	20337.9296875	17103.033203125	16484.697265625	15809.7294921875	17943.02734375	16678.212890625	16100.2626953125	20719.875	19128.46484375	19458.529296875	17142.630859375	17310.279296875	16777.041015625	13513.681640625	39477.49609375	17758.228515625	22622.30859375
1500	1800	14999.337890625	16600.26953125	11701.8984375	15749.5546875	11151.392578125	12400.216796875	19381.07421875	14983.3203125	13037.1494140625	16970.365234375	-1393.849365234375	4917.05810546875	15532.837890625	19826.64453125	14609.107421875	16219.607421875	11886.201171875	15898.4404296875	13549.146484375	12460.5888671875	18322.259765625	10258.509765625	18493.642578125	-5528.39453125	16839.982421875	7365.64892578125	6825.20361328125	7803.35693359375	11088.873046875	16184.322265625	4222.24951171875	9121.5419921875	13858.671875	13660.5068359375	16048.1884765625	14093.9755859375	16515.2734375	17103.484375	14006.0654296875	18226.771484375	13174.9228515625	13874.7080078125	17941.52734375	13857.091796875	19603.890625	13039.35546875	12472.3056640625	11386.4931640625	16300.505859375	13836.09765625	15021.7099609375	13849.03515625	14303.0419921875	16584.3984375	14540.2822265625	13837.80078125	18674.16796875	14995.9423828125	15013.9833984375	14904.3115234375	15729.9208984375	14716.099609375	11817.541015625	25399.009765625	17940.029296875	19510.087890625	13408.099609375	19425.712890625	17099.03125	17194.5078125	15000.1767578125	16277.412109375	14730.974609375	17775.40625	13425.5244140625	15130.9287109375	20818.765625	15870.7978515625	24597.728515625	15256.1416015625	10976.55859375	13797.7060546875	13954.6162109375	17092.373046875	14742.365234375	15457.78515625	13625.4296875	14970.0830078125	14317.951171875	13754.1220703125	17680.365234375	16325.5908203125	16677.578125	14419.6650390625	14550.46484375	14151.873046875	10137.64453125	34848.109375	13910.83203125	19544.12890625
1800	2100	14212.5244140625	15132.9150390625	9674.7275390625	12705.4462890625	10095.7958984375	10137.5947265625	15988.921875	12759.357421875	10835.216796875	13329.2275390625	-789.7007446289062	-677.0408935546875	14590.4580078125	21020.341796875	13906.875	15065.9267578125	9781.3828125	13092.60546875	10451.689453125	10182.224609375	16142.6904296875	9668.078125	17326.734375	-8528.6533203125	13993.5419921875	4864.56787109375	6510.29150390625	7602.01171875	8852.5380859375	14191.68359375	4025.871337890625	9137.6455078125	13236.3359375	12783.37109375	14125.1455078125	13205.021484375	10236.19140625	15618.5849609375	12399.2255859375	15909.4345703125	11172.4658203125	12256.6015625	15221.8701171875	13227.0693359375	17885.943359375	11346.650390625	11720.7724609375	11592.439453125	13008.15625	12775.54296875	13864.21484375	12033.9970703125	12685.2314453125	13026.373046875	12797.21484375	12569.177734375	16024.3916015625	12951.66796875	13052.3046875	12362.080078125	13431.6748046875	13199.9248046875	10319.193359375	21107.447265625	16186.3662109375	16787.798828125	12719.5185546875	14782.90625	14054.46484375	13684.7470703125	12017.43359375	14191.1123046875	12858.5849609375	14982.162109375	12912.0361328125	12884.0947265625	18124.599609375	13937.568359375	20994.03515625	13140.1376953125	10181.5634765625	11783.228515625	13141.6533203125	14425.2900390625	13082.2724609375	13557.59375	12034.5205078125	13794.2451171875	12713.142578125	11545.7626953125	16009.5908203125	14420.0908203125	14564.1435546875	12671.390625	12578.3251953125	12683.1650390625	9091.537109375	28872.46484375	13871.1259765625	17234.078125
2100	2400	13434.5830078125	14008.283203125	7990.62744140625	11195.1640625	7849.0224609375	8679.7861328125	14033.7900390625	11452.130859375	8998.2392578125	11994.875	-509.80120849609375	142.9801788330078	12582.2412109375	16706.388671875	13216.1865234375	13426.5947265625	8202.4365234375	10368.314453125	9191.1064453125	8917.33203125	14522.033203125	6480.96728515625	13866.7734375	-11830.3134765625	12763.009765625	7587.29638671875	6086.111328125	7393.416015625	9126.8935546875	13794.9501953125	3795.1708984375	9044.513671875	11559.802734375	13205.517578125	12309.5634765625	11543.4482421875	8179.19677734375	14388.4052734375	11176.1826171875	13809.8466796875	10985.1875	10993.96484375	13394.357421875	11762.0283203125	14595.224609375	10052.1748046875	9937.5234375	10381.2099609375	11774.5478515625	11819.5302734375	11535.2392578125	10813.015625	11259.1171875	13438.76171875	11038.802734375	10529.1376953125	14032.9541015625	11858.34765625	11504.07421875	11806.712890625	11951.9013671875	11734.2802734375	9751.2958984375	19106.72265625	14221.4091796875	15076.388671875	10483.2373046875	13634.40234375	12425.771484375	12498.0673828125	9999.0625	13519.0078125	11560.9169921875	12714.1630859375	9796.7958984375	11727.2578125	14785.4150390625	13003.775390625	18812.119140625	11099.7177734375	8133.31494140625	9103.2431640625	11692.037109375	13646.0078125	11450.509765625	11954.5908203125	10599.2509765625	12339.5908203125	10917.736328125	10539.4296875	13378.583984375	12887.3623046875	12672.1689453125	11235.89453125	11630.400390625	11563.9912109375	7992.5341796875	24501.185546875	12546.7119140625	14715.74609375
2400	2700	12698.4296875	12544.548828125	6760.9287109375	8958.6923828125	6005.76220703125	7287.07421875	13245.271484375	9975.4638671875	8157.40283203125	8116.666015625	156.98898315429688	-849.9981689453125	10827.7197265625	16230.73828125	12309.9638671875	12476.4287109375	6998.46484375	9142.4990234375	8573.7470703125	8242.5224609375	10473.197265625	7540.90625	12093.705078125	-14139.9638671875	10270.572265625	6641.94189453125	5971.986328125	7155.7451171875	7359.345703125	11407.111328125	3340.192626953125	9019.3212890625	11914.7607421875	8709.8564453125	11994.662109375	9496.19140625	7633.67138671875	13678.2197265625	10636.5244140625	12827.6826171875	9328.46875	9917.0322265625	13005.767578125	11435.5673828125	13940.3271484375	8760.681640625	9642.8935546875	8678.1904296875	12342.1875	11994.56640625	10680.548828125	10182.9521484375	10297.0185546875	11879.44921875	9922.6533203125	10257.9404296875	11958.7548828125	10535.8720703125	10490.37890625	10346.359375	10565.978515625	10954.427734375	10212.7734375	14002.66796875	14675.359375	14341.7001953125	10866.720703125	14909.8974609375	11885.12109375	12503.68359375	7647.4521484375	12547.30078125	11100.763671875	12597.953125	10252.37890625	10835.2333984375	14561.408203125	12086.6171875	17322.876953125	10480.103515625	7618.13330078125	9949.8056640625	11119.564453125	11713.720703125	11167.498046875	11801.5634765625	9960.1611328125	11746.6240234375	9993.0654296875	9502.7939453125	10981.6640625	11793.90234375	11735.876953125	11006.2392578125	10154.0810546875	10693.173828125	8474.06640625	21327.701171875	12115.5087890625	13961.5771484375
