time	whole_blood_radioactivity	plasma_radioactivity	metabolite_parent_fraction	AIF
0	0	0	1	0
1.201400233372229	0.042198564135353334	0.06408155702655993	0.9994028232262788	0.041669980868522194
2.402800466744458	0.08439712827070667	0.12816311405311986	0.9988056464525576	0.08333996173704439
3.604200700116687	0.12659569240606	0.19224467107967974	0.9982084696788365	0.12500994260556658
4.805600933488916	0.16879425654141333	0.25632622810623973	0.9976112929051154	0.16667992347408878
6.007001166861144	0.21099282067676667	0.3204077851327996	0.9970141161313942	0.20834990434261094
7.208401400233374	0.25319138481212	0.3844893421593595	0.9964169393576731	0.25001988521113316
8.409801633605602	0.2953899489474733	0.4485708991859194	0.9958197625839519	0.2916898660796553
9.611201866977831	0.33758851308282667	0.5126524562124795	0.9952225858102307	0.33335984694817755
10.81260210035006	0.37978707721818	0.5767340132390393	0.9946254090365095	0.3750298278166997
12.014002333722289	0.42198564135353334	0.6408155702655992	0.9940282322627884	0.4166998086852219
13.215402567094518	0.4641842054888866	0.7048971272921591	0.9934310554890673	0.4583697895537441
14.416802800466748	0.50638276962424	0.768978684318719	0.9928338787153461	0.5000397704222663
15.618203033838977	0.5485813337595934	0.833060241345279	0.9922367019416249	0.5417097512907885
16.819603267211203	0.5907798978949466	0.8971417983718388	0.9916395251679038	0.5833797321593106
18.021003500583433	0.6329784620303	0.9612233553983988	0.9910423483941826	0.6250497130278329
19.222403733955662	0.6751770261656533	1.025304912424959	0.9904451716204614	0.6667196938963551
20.423803967327892	0.7173755903010066	1.0893864694515187	0.9898479948467402	0.7083896747648772
21.62520420070012	0.75957415443636	1.1534680264780786	0.9892508180730191	0.7500596556333994
22.826604434072348	0.8017727185717133	1.2175495835046386	0.988653641299298	0.7917296365019216
24.028004667444577	0.8439712827070667	1.2816311405311984	0.9880564645255768	0.8333996173704438
25.229404900816807	0.9150684859037891	1.3895973610515484	0.9874739039665971	0.8824740333009891
26.430805134189036	2.137982874546328	3.2466808836812535	0.9874739039665971	1.2266680752749823
27.632205367561266	3.3608972631888667	5.103764406310959	0.9874739039665971	1.5708621172489758
28.833605600933495	4.583811651831405	6.960847928940664	0.9874739039665971	1.9150561592229691
30.03500583430572	5.80672604047394	8.817931451570363	0.9874739039665971	2.2592502011969615
31.236406067677954	7.02964042911648	10.675014974200069	0.9874739039665971	2.603444243170955
32.43780630105018	8.25255481775902	12.532098496829775	0.9874739039665971	2.947638285144948
33.63920653442241	9.475469206401552	14.389182019459472	0.9874739039665971	3.2918323271189402
34.84060676779464	10.698383595044096	16.246265542089187	0.9874739039665971	3.6360263690929346
36.042007001166866	11.92129798368663	18.103349064718884	0.9874739039665971	3.9802204110669277
37.2434072345391	13.144212372329173	19.960432587348595	0.9874739039665971	4.324414453040922
38.444807467911325	14.367126760971706	21.817516109978293	0.9874739039665971	4.668608495014914
39.64620770128355	15.590041149614244	23.674599632607993	0.9874739039665971	5.012802536988906
40.847607934655784	16.812955538256784	25.531683155237705	0.9874739039665971	5.356996578962901
42.04900816802801	18.03586992689932	27.388766677867405	0.9874739039665971	5.701190620936893
43.25040840140024	25.027878725242395	38.00663531207179	0.9874739039665971	14.906097464290669
44.45180863477247	163.74754321172875	248.66243066053605	0.9874739039665971	226.43061327245383
45.653208868144695	302.46720769821513	459.3182260090003	0.9874739039665971	437.9551290806169
46.85460910151693	441.18687218470234	669.9740213574659	0.9874739039665971	649.4796448887814
48.056009334889154	579.9065366711886	880.62981670593	0.9874739039665971	861.0041606969445
49.25740956826139	718.6262011576758	1091.2856120543954	0.9874739039665971	1072.528676505109
50.45880980163361	857.3458656441621	1301.9414074028598	0.9874739039665971	1284.053192313272
51.66021003500584	1878.9225739287144	2847.907969319246	0.9871529858333509	2758.7082997560087
52.86161026837807	3624.198640490997	5474.492893505043	0.9865690033130429	5268.782227276707
54.0630105017503	5369.474707053269	8083.205169097486	0.985985020792735	7778.856154797392
55.26441073512253	7114.750773615553	10674.226599734835	0.985401038272427	10288.930082318093
56.46581096849476	8860.026840177823	13247.736531604227	0.984817055752119	12799.004009838774
57.66721120186699	10605.30290674011	15803.911894823861	0.984233073231811	15309.077937359476
58.86861143523922	12350.57897330238	18342.927243991486	0.983649090711503	17819.151864880158
60.07001166861144	14095.855039864653	20864.95479791931	0.983065108191195	20329.225792400845
61.27141190198368	15841.131106426936	23370.164478573755	0.9824811256708871	22839.299719921542
62.47281213535591	17586.407172989213	25858.723949238876	0.9818971431505791	25349.37364744223
63.674212368728135	19191.95388884055	28173.602585936005	0.9813131606302711	27623.55784693761
64.87561260210036	20688.241828902337	30360.929052316063	0.9807291781099631	29713.292446014428
66.07701283547259	22184.529768964127	32546.92930660808	0.9801451955896551	31803.027045091247
67.27841306884481	23680.817709025916	34731.60455460288	0.9795612130693471	33892.761644168066
68.47981330221705	25177.10564908772	36914.95600063002	0.9789772305490391	35982.49624324492
69.68121353558928	26673.393589149513	39096.9848475599	0.9783932480287311	38072.23084232174
70.8826137689615	28169.6815292113	41277.69229680612	0.9778092655084232	40161.965441398555
72.08401400233373	29665.969469273088	43457.079548327565	0.9772252829881152	42251.70004047538
73.28541423570596	31162.257409334878	45635.1478006307	0.9766413004678072	44341.43463955221
74.4868144690782	32658.54534939668	47811.898250771716	0.9760573179474992	46431.16923862904
75.68821470245042	34154.83328945847	49987.332094358615	0.9754733354271912	48520.90383770587
76.88961493582265	35651.12122952026	52161.450525553664	0.9748893529068832	50610.63843678268
78.09101516919488	37147.409169582046	54334.25473707534	0.9743053703865752	52700.37303585951
79.2924154025671	38643.697109643836	56505.74592020062	0.9737213878662672	54790.10763493633
80.49381563593934	40139.98504970565	58675.92526476716	0.9731374053459593	56879.842234013166
81.69521586931157	41636.272989767436	60844.79395917536	0.9725534228256513	58969.57683308999
82.8966161026838	43132.56092982922	63012.3531903907	0.9719694403053433	61059.31143216681
84.09801633605602	44628.84886989101	65178.604143945806	0.9713854577850353	63149.04603124364
85.29941656942825	46125.13680995279	67343.54800394257	0.9708014752647273	65238.78063032046
86.50081680280049	47621.424750014594	69507.1859530545	0.9702174927444193	67328.51522939731
87.70221703617271	49117.71269007639	71669.51917252857	0.9696335102241113	69418.24982847412
88.90361726954494	50614.00063013818	73830.54884218765	0.9690495277038033	71507.98442755095
90.10501750291716	52018.11208068583	75855.86216391316	0.9685193191287648	73467.64440148664
91.30641773628939	52459.90098070603	76477.09640749687	0.9685505105423395	74069.32528894908
92.50781796966163	52901.68988072624	77097.9570774433	0.9685817019559142	74671.00617641155
93.70921820303386	53343.478780746445	77718.44451061891	0.9686128933694889	75272.68706387401
94.91061843640608	53785.26768076664	78338.55904348526	0.9686440847830636	75874.36795133645
96.11201866977831	54227.05658078685	78958.3010120996	0.9686752761966383	76476.0488387989
97.31341890315053	54668.84548080705	79577.67075211547	0.968706467610213	77077.72972626136
98.51481913652277	55110.634380827265	80196.66859878344	0.9687376590237877	77679.4106137238
99.716219369895	55552.42328084746	80815.29488695142	0.9687688504373624	78281.09150118625
100.91761960326723	55994.21218086767	81433.54995106564	0.968800041850937	78882.77238864871
102.11901983663945	56436.00108088787	82051.43412517096	0.9688312332645118	79484.45327611115
103.32042007001168	56877.78998090808	82668.94774291155	0.9688624246780865	80086.1341635736
104.52182030338392	57319.57888092828	83286.09113753164	0.9688936160916611	80687.81505103607
105.72322053675614	57761.36778094849	83902.86464187586	0.9689248075052359	81289.4959384985
106.92462077012837	58203.15668096869	84519.26858839001	0.9689559989188106	81891.17682596097
108.1260210035006	58644.94558098889	85135.30330912168	0.9689871903323852	82492.85771342341
109.32742123687282	59133.86266062714	85824.57651500001	0.9690189267718212	83166.38989053582
110.52882147024506	60020.002968474684	87134.48570617563	0.9690552570006592	84445.52579469788
111.73022170361729	60906.14327632221	88445.11086196962	0.9690915872294972	85724.66169885993
112.93162193698952	61792.28358416973	89756.45256953579	0.9691279174583352	87003.79760302197
114.13302217036174	62678.42389201726	91068.51141667017	0.969164247687173	88282.93350718403
115.33442240373398	63564.5641998648	92381.28799181189	0.969200577916011	89562.06941134609
116.53582263710621	64450.70450771232	93694.78288404396	0.969236908144849	90841.20531550814
117.73722287047843	65336.844815559845	95008.99668309432	0.969273238373687	92120.3412196702
118.93862310385066	66222.98512340737	96323.92997933655	0.9693095686025249	93399.47712383224
120.14002333722289	67109.1254312549	97639.58336379091	0.9693458988313628	94678.61302799429
121.34142357059513	67995.26573910244	98955.9574281251	0.9693822290602008	95957.74893215635
122.54282380396737	68881.40604694997	100273.05276465522	0.9694185592890388	97236.8848363184
123.74422403733958	69767.54635479748	101590.86996634657	0.9694548895178767	98516.02074048044
124.94562427071182	70653.686662645	102909.40962681473	0.9694912197467147	99795.15664464248
126.14702450408403	71539.82697049253	104228.67234032624	0.9695275499755526	101074.29254880453
127.34842473745627	72425.96727834007	105548.65870179959	0.9695638802043905	102353.4284529666
128.5498249708285	73312.10758618759	106869.36930680611	0.9696002104332285	103632.56435712865
129.75122520420072	74198.24789403511	108190.80475157086	0.9696365406620665	104911.7002612907
130.95262543757295	75086.4478742486	109510.4543024793	0.9696762306961618	106189.55297442313
132.15402567094517	75988.80101594921	110812.98486873593	0.9697390078324383	107458.58816387507
133.3554259043174	76891.15415764983	112115.19781976596	0.9698017849687148	108727.623353327
134.55682613768963	77793.50729935044	113417.09327172843	0.9698645621049913	109996.65854277894
135.75822637106185	78695.86044105106	114718.67134072573	0.9699273392412678	111265.69373223087
136.9596266044341	79598.21358275168	116019.93214280368	0.9699901163775443	112534.72892168284
138.16102683780633	80500.56672445229	117320.87579395152	0.9700528935138208	113803.76411113478
139.36242707117856	81402.9198661529	118621.5024101019	0.9701156706500973	115072.7993005867
140.56382730455078	82305.27300785351	119921.8121071311	0.9701784477863739	116341.83449003864
141.765227537923	83207.62614955413	121221.8050008588	0.9702412249226503	117610.86967949057
142.96662777129524	84109.97929125474	122521.48120704839	0.9703040020589269	118879.90486894251
144.16802800466746	85012.33243295536	123820.84084140675	0.9703667791952033	120148.94005839445
145.3694282380397	85914.68557465597	125119.88401958444	0.9704295563314799	121417.97524784639
146.57082847141191	86817.03871635659	126418.61085717566	0.9704923334677563	122687.01043729833
147.77222870478414	87719.39185805719	127717.02146971838	0.9705551106040329	123956.04562675027
148.9736289381564	88003.89902915909	128031.78106048742	0.9707616155186163	124290.5080571988
150.17502917152862	87946.773722400525	127803.18612719237	0.9710475934400282	124108.20672678668
151.37642940490085	87889.64841564198	127575.11046045163	0.9713335713614402	123925.90539637455
152.57782963827307	87832.52310888341	127347.55229295665	0.9716195492828521	123743.60406596243
153.7792298716453	87775.39780212485	127120.50986540975	0.971905527204264	123561.30273555031
154.98063010501753	87718.2724953663	126893.9814264789	0.972191505125676	123379.0014051382
156.18203033838975	87661.14718860773	126667.96523275242	0.9724774830470879	123196.70007472606
157.38343057176198	87604.02188184918	126442.45954869459	0.9727634609684997	123014.39874431395
158.5848308051342	87546.89657509062	126217.46264660092	0.9730494388899117	122832.09741390184
159.78623103850646	87489.77126833204	125992.97280655426	0.9733354168113236	122649.79608348971
160.98763127187868	87432.6459615735	125768.98831638088	0.9736213947327356	122467.49475307757
162.1890315052509	87375.52065481493	125545.50747160689	0.9739073726541475	122285.19342266546
163.39043173862314	87318.39534805638	125322.52857541516	0.9741933505755594	122102.89209225334
164.59183197199536	87261.27004129782	125100.04993860208	0.9744793284969714	121920.59076184122
165.7932322053676	87204.14473453925	124878.06987953532	0.9747653064183833	121738.28943142909
166.9946324387398	87147.0194277807	124656.58672411111	0.9750512843397953	121555.98810101698
168.19603267211204	87089.89412102214	124435.5988057123	0.9753372622612072	121373.68677060485
169.39743290548427	87032.76881426359	124215.10446516656	0.9756232401826191	121191.38544019274
170.5988331388565	86975.64350750502	123995.10205070484	0.9759092181040311	121009.08410978061
171.80023337222875	85188.73325557815	121487.68123864352	0.9751873871846563	118480.28477031403
173.00163360560097	82534.66047208408	117826.95822788282	0.9739603292611074	114775.15703260773
174.2030338389732	79880.58768859002	114158.49827606101	0.9727332713375586	111070.02929490144
175.40443407234542	77226.51490509597	110482.2768291838	0.9715062134140098	107364.90155719517
176.60583430571765	74572.4421216019	106798.26922924728	0.9702791554904611	103659.77381948888
177.80723453908988	71918.36933810783	103106.45071368672	0.9690520975669122	99954.64608178259
179.0086347724621	69264.29655461379	99406.79641482158	0.9678250396433634	96249.5183440763
180.21003500583433	66610.22377111971	95699.28135929724	0.9665979817198147	92544.39060637001
181.41143523920655	63956.150987625646	91983.88046752314	0.9653709237962659	88839.26286866372
182.61283547257878	61302.07820413159	88260.56855310715	0.964143865872717	85134.13513095744
183.81423570595103	58648.00542063746	84529.32032228647	0.9629168079491682	81429.00739325106
185.01563593932326	55993.9326371434	80790.11037335511	0.9616897500256195	77723.87965554478
186.2170361726955	53339.859853649345	77042.91319608704	0.9604626921020707	74018.75191783848
187.4184364060677	50685.78707015528	73287.70317115629	0.9592356341785219	70313.62418013219
188.61983663943994	48031.71428666122	69524.45456955313	0.9580085762549732	66608.49644242591
189.82123687281216	46583.25242442369	67465.25332226028	0.9574432496190962	64593.365514559846
191.0226371061844	45692.88666639948	66196.66335259721	0.9571842487199675	63360.560475647864
192.22403733955662	44802.52090837528	64927.271728952124	0.9569252478208389	62127.75543673588
193.42543757292884	43912.15515035107	63657.077691206774	0.9566662469217103	60894.9503978239
194.62683780630107	43021.78939232686	62386.08047828171	0.9564072460225816	59662.14535891191
195.82823803967332	42131.42363430263	61114.27932813458	0.9561482451234531	58429.3403199999
197.02963827304555	41241.05787627842	59841.673477758835	0.9558892442243244	57196.53528108792
198.23103850641778	40350.69211825421	58568.26216318197	0.9556302433251957	55963.730242175945
199.43243873979	39460.32636023	57294.04461946413	0.9553712424260672	54730.92520326395
200.63383897316223	38569.9606022058	56019.02008069656	0.9551122415269385	53498.120164351974
201.83523920653445	37679.59484418158	54743.18778	0.95485324062781	52265.31512543999
203.03663943990668	36789.22908615738	53466.546949523305	0.9545942397286813	51032.510086528004
204.2380396732789	35898.863328133164	52189.096820441715	0.9543352388295526	49799.70504761602
205.43943990665113	35008.49757010896	50910.836622955445	0.9540762379304241	48566.90000870404
206.64084014002336	34118.13181208475	49631.76558628809	0.9538172370312954	47334.09496979206
207.8422403733956	33227.76605406052	48351.88293868507	0.9535582361321667	46101.28993088004
209.04364060676784	32337.400296036307	47071.18790741211	0.9532992352330382	44868.484891968066
210.24504084014006	31447.0345380121	45789.67971875367	0.9530402343339095	43635.67985305608
211.4464410735123	30556.668779987893	44507.35759801134	0.9527812334347809	42402.874814144096
212.64784130688452	29666.303021963686	43224.22076950234	0.9525222325356523	41170.069775232114
213.84924154025674	28775.937263939475	41940.26845655794	0.9522632316365236	39937.26473632013
215.05064177362897	28028.478468880145	40860.04134701589	0.9520711014150517	38901.99789244251
216.2520420070012	27823.1080975814	40555.42485927367	0.9521326314736293	38616.051911292925
217.45344224037342	27617.737726282656	40250.886867115	0.9521941615322068	38330.10593014334
218.65484247374565	27412.36735498391	39946.42734020288	0.9522556915907844	38044.15994899376
219.8562427071179	27206.99698368516	39642.046248215964	0.952317221649362	37758.21396784416
221.05764294049013	27001.626612386415	39337.743560848525	0.9523787517079395	37472.267986694584
222.25904317386235	26796.256241087667	39033.519247810444	0.9524402817665171	37186.322005545
223.46044340723458	26590.885869788923	38729.37327882721	0.9525018118250946	36900.37602439542
224.6618436406068	26385.51549849018	38425.30562363989	0.9525633418836722	36614.43004324583
225.86324387397903	26180.14512719143	38121.31625200515	0.9526248719422498	36328.48406209624
227.06464410735126	25974.774755892686	37817.4051336952	0.9526864020008273	36042.538080946666
228.26604434072348	25769.40438459394	37513.57223849783	0.9527479320594049	35756.592099797075
229.4674445740957	25564.034013295197	37209.817536216375	0.9528094621179825	35470.64611864749
230.66884480746796	25358.663641996445	36906.1409966697	0.95287099217656	35184.7001374979
231.8702450408402	25153.293270697697	36602.542589692246	0.9529325222351376	34898.75415634832
233.07164527421241	24947.922899398953	36299.02228513392	0.9529940522937153	34612.808175198734
234.27304550758464	24742.55252810021	35995.580052860154	0.9530555823522928	34326.86219404915
235.47444574095687	24537.182156801464	35692.215862751895	0.9531171124108704	34040.91621289957
236.6758459743291	24331.811785502716	35388.92968470556	0.953178642469448	33754.970231749976
237.87724620770132	24126.44141420397	35085.72148863307	0.9532401725280255	33469.0242506004
239.07864644107354	23921.071042905227	34782.591244461815	0.9533017025866031	33183.07826945081
240.28004667444577	23715.70067160648	34479.53892213461	0.9533632326451806	32897.13228830123
241.481446907818	23510.330300307734	34176.56449160978	0.9534247627037582	32611.186307151642
242.68284714119025	23304.959929008983	33873.667922861016	0.9534862927623358	32325.240326002055
243.88424737456245	23099.58955771024	33570.84918587752	0.9535478228209133	32039.294344852464
245.08564760793473	22894.21918641149	33268.10825066386	0.9536093528794909	31753.348363702884
246.28704784130693	22688.848815112746	32965.44508724005	0.9536708829380685	31467.4023825533
247.48844807467916	22483.478443814	32662.859665641463	0.953732412996646	31181.456401403713
248.68984830805135	22278.108072515257	32360.3519559189	0.9537939430552236	30895.510420254133
249.89124854142364	22072.73770121651	32057.921928138534	0.9538554731138011	30609.564439104546
251.09264877479583	21867.36732991776	31755.56955238189	0.9539170031723787	30323.618457954963
252.29404900816806	21661.996958619016	31453.2947987459	0.9539785332309563	30037.672476805375
253.49544924154026	21456.626587320272	31151.097637342802	0.9540400632895338	29751.726495655796
254.69684947491254	21251.256216021524	30848.97803830019	0.9541015933481114	29465.780514506205
255.8982497082848	21045.885844722776	30546.935971761002	0.954163123406689	29179.834533356618
257.099649941657	20840.51547342403	30244.971407883495	0.9542246534652665	28893.888552207034
258.3010501750292	20635.145102125287	29943.08431684123	0.9542861835238441	28607.94257105745
259.50245040840144	20429.774730826543	29641.274668823076	0.9543477135824217	28321.996589907867
260.70385064177367	20224.404359527794	29339.54243403319	0.9544092436409992	28036.05060875828
261.9052508751459	20019.033988229046	29037.887582691008	0.9544707736995768	27750.1046276087
263.1066511085181	19813.663616930306	28736.31008503127	0.9545323037581545	27464.158646459113
264.30805134189035	19608.293245631558	28434.80991130393	0.954593833816732	27178.21266530953
265.5094515752626	19402.922874332813	28133.38703177425	0.9546553638753096	26892.266684159942
266.7108518086348	19197.55250303407	27832.041416722688	0.9547168939338871	26606.320703010362
267.912252042007	18992.18213173532	27530.77303644496	0.9547784239924647	26320.37472186077
269.11365227537925	18786.811760436573	27229.58186125201	0.9548399540510423	26034.42874071119
270.3150525087515	18581.441389137828	26928.467861469984	0.9549014841096198	25748.482759561608
271.5164527421237	18376.071017839084	26627.43100744024	0.9549630141681974	25462.536778412024
272.717852975496	18170.70064654033	26326.47126951932	0.955024544226775	25176.590797262426
273.9192532088682	17965.330275241584	26025.588618078986	0.9550860742853525	24890.64481611284
275.12065344224044	17759.959903942836	25724.783023506126	0.9551476043439301	24604.69883496326
276.32205367561266	17554.589532644095	25424.054456202844	0.9552091344025077	24318.752853813672
277.5234539089849	17349.219161345347	25123.402886586355	0.9552706644610852	24032.80687266409
278.7248541423571	17143.848790046603	24822.82828508905	0.9553321945196628	23746.8608915145
279.92625437572934	16938.478418747854	24522.33062215845	0.9553937245782403	23460.91491036492
281.12765460910157	16733.108047449106	24221.90986825719	0.9554552546368179	23174.968929215334
282.3290548424738	16527.737676150366	23921.565993863052	0.9555167846953955	22889.02294806575
283.530455075846	16322.367304851618	23621.298969468884	0.955578314753973	22603.076966916167
284.73185530921825	16116.996933552873	23321.108765582678	0.9556398448125506	22317.130985766584
285.9332555425905	15911.626562254129	23020.99535272749	0.9557013748711282	22031.185004617
287.1346557759627	15706.256190955382	22720.958701441443	0.9557629049297057	21745.239023467417
288.3360560093349	15500.885819656634	22420.99878227775	0.9558244349882833	21459.29304231783
289.53745624270715	15295.51544835789	22121.11556580469	0.9558859650468609	21173.347061168246
290.7388564760794	15090.145077059144	21821.309022605565	0.9559474951054384	20887.401080018662
291.9402567094516	14884.7747057604	21521.57912327874	0.956009025164016	20601.45509886908
293.14165694282383	14679.404334461655	21221.925838437604	0.9560705552225937	20315.50911771949
294.34305717619606	14474.033963162909	20922.349138710553	0.9561320852811712	20029.56313656991
295.5444574095683	14268.663591864162	20622.848994741023	0.9561936153397488	19743.61715542033
296.74585764294056	14063.293220565407	20323.425377187414	0.9562551453983263	19457.67117427073
297.9472578763128	13857.922849266663	20024.078256723176	0.9563166754569039	19171.725193121143
299.148658109685	13652.552477967916	19724.807604036683	0.9563782055154815	18885.779211971556
300.35005834305724	13447.18210666917	19425.613389831316	0.956439735574059	18599.833230821976
301.55145857642947	13241.811735370424	19126.495584825407	0.9565012656326366	18313.88724967239
302.7528588098017	13036.44136407168	18827.454159752248	0.9565627956912142	18027.941268522805
303.9542590431739	12831.070992772935	18528.489085360063	0.9566243257497917	17741.99528737322
305.15565927654615	12625.700621474189	18229.60033241203	0.9566858558083693	17456.04930622364
306.3570595099184	12420.330250175442	17930.787871686247	0.9567473858669469	17170.103325074055
307.5584597432906	12214.959878876698	17632.051673975715	0.9568089159255244	16884.15734392447
308.7598599766628	12009.58950757795	17333.391710088345	0.956870445984102	16598.211362774884
309.96126021003505	11804.219136279205	17034.80795084697	0.9569319760426795	16312.265381625299
311.1626604434073	11598.84876498046	16736.300367089287	0.9569935061012571	16026.319400475717
312.3640606767795	11393.478393681715	16437.868929667868	0.9570550361598347	15740.373419326133
313.5654609101517	11188.10802238297	16139.513609450169	0.9571165662184122	15454.427438176548
314.76686114352395	10982.737651084224	15841.23437731849	0.9571780962769898	15168.481457026965
315.9682613768962	10777.36727978548	15543.03120416999	0.9572396263355674	14882.53547587738
317.1696616102684	10571.996908486732	15244.904060916664	0.9573011563941449	14596.589494727798
318.37106184364063	10366.626537187987	14946.852918485349	0.9573626864527225	14310.643513578214
319.5724620770129	10220.326810920009	14733.956404924795	0.9572401085420131	14105.091454253048
320.77386231038514	10205.492580359585	14710.438549936995	0.9567077865793567	14078.461205905518
321.97526254375737	10190.658349799165	14686.927511011678	0.9561754646167003	14051.83095755799
323.1766627771296	10175.824119238741	14663.423285186074	0.9556431426540439	14025.200709210461
324.3780630105018	10160.98988867832	14639.925869499128	0.9551108206913875	13998.570460862931
325.57946324387405	10146.155658117897	14616.43526099151	0.954578498728731	13971.940212515403
326.78086347724627	10131.321427557476	14592.951456705592	0.9540461767660746	13945.309964167875
327.9822637106185	10116.487196997052	14569.474453685469	0.9535138548034182	13918.679715820344
329.1836639439907	10101.652966436632	14546.004248976944	0.9529815328407618	13892.049467472816
330.38506417736295	10086.81873587621	14522.540839627527	0.9524492108781054	13865.419219125288
331.5864644107352	10071.984505315786	14499.084222686446	0.951916888915449	13838.788970777758
332.7878646441074	10057.150274755366	14475.634395204635	0.9513845669527926	13812.15872243023
333.9892648774796	10042.316044194942	14452.191354234723	0.9508522449901362	13785.528474082701
335.19066511085185	10027.48181363452	14428.755096831059	0.9503199230274798	13758.898225735173
336.3920653442241	10012.647583074098	14405.325620049698	0.9497876010648234	13732.267977387643
337.5934655775963	9997.813352513676	14381.902920948383	0.949255279102167	13705.637729040114
338.79486581096853	9982.979121953253	14358.486996586573	0.9487229571395106	13679.007480692586
339.99626604434076	9968.144891392833	14335.077844025418	0.9481906351768542	13652.377232345056
341.197666277713	9953.310660832409	14311.675460327779	0.9476583132141978	13625.746983997527
342.3990665110852	9938.476430271987	14288.2798425582	0.9471259912515414	13599.116735650001
343.6004667444575	9923.642199711563	14264.890987782941	0.946593669288885	13572.48648730247
344.8018669778297	9908.807969151143	14241.508893069938	0.9460613473262286	13545.85623895494
346.00326721120194	9893.97373859072	14218.133555488841	0.9455290253635722	13519.225990607412
347.20466744457417	9879.139508030297	14194.764972110972	0.9449967034009158	13492.595742259884
348.4060676779464	9864.305277469877	14171.403140009368	0.9444643814382594	13465.965493912354
349.6074679113186	9849.471046909453	14148.04805625874	0.943932059475603	13439.335245564826
350.80886814469085	9834.636816349032	14124.699717935493	0.9433997375129466	13412.704997217297
352.0102683780631	9819.80258578861	14101.35812211773	0.9428674155502902	13386.074748869767
353.2116686114353	9804.968355228188	14078.023265885226	0.9423350935876338	13359.444500522239
354.4130688448075	9790.134124667764	14054.695146319451	0.9418027716249774	13332.81425217471
355.61446907817975	9775.299894107344	14031.37376050356	0.941270449662321	13306.18400382718
356.815869311552	9760.46566354692	14008.059105522392	0.9407381276996646	13279.553755479652
358.0172695449242	9745.631432986498	13984.751178462462	0.9402058057370082	13252.923507132124
359.21866977829643	9730.797202426076	13961.449976411977	0.9396734837743517	13226.293258784593
360.42007001166866	9715.962971865654	13938.155496460811	0.9391411618116953	13199.663010437065
361.6214702450409	9701.12874130523	13914.867735700529	0.9386088398490389	13173.032762089537
362.8228704784131	9686.29451074481	13891.586691224367	0.9380765178863825	13146.402513742007
364.02427071178533	9671.460280184387	13868.312360127236	0.9375441959237261	13119.772265394478
365.22567094515756	9656.626049623965	13845.044739505729	0.9370118739610697	13093.14201704695
366.4270711785298	9641.791819063543	13821.783826458108	0.9364795519984133	13066.511768699422
367.62847141190207	9626.95758850312	13798.529618084307	0.9359472300357569	13039.881520351893
368.8298716452743	9612.123357942699	13775.282111485933	0.9354149080731005	13013.251272004363
370.0312718786465	9597.289127382275	13752.041303766267	0.9348825861104441	12986.621023656835
371.23267211201875	9582.454896821855	13728.807192030255	0.9343502641477877	12959.990775309307
372.434072345391	9567.620666261431	13705.579773384508	0.9338179421851313	12933.360526961776
373.6354725787632	9552.78643570101	13682.359044937311	0.9332856202224749	12906.730278614248
374.8368728121354	9537.952205140587	13659.145003798614	0.9327532982598185	12880.10003026672
376.03827304550765	9523.117974580166	13635.93764708002	0.932220976297162	12853.46978191919
377.2396732788799	9508.283744019742	13612.736971894808	0.9316886543345057	12826.839533571661
378.4410735122521	9493.449513459322	13589.542975357923	0.9311563323718492	12800.209285224133
379.64247374562433	9478.615282898898	13566.355654585946	0.9306240104091928	12773.579036876605
380.84387397899656	9463.781052338476	13543.175006697147	0.9300916884465364	12746.948788529075
382.0452742123688	9448.946821778054	13520.001028811437	0.92955936648388	12720.318540181546
383.246674445741	9434.112591217632	13496.83371805039	0.9290270445212236	12693.688291834018
384.44807467911323	9419.278360657208	13473.673071537229	0.9284947225585672	12667.058043486488
385.64947491248546	9404.444130096788	13450.519086396847	0.9279624005959108	12640.42779513896
386.8508751458577	9389.609899536366	13427.371759755772	0.9274300786332544	12613.797546791431
