frame_start	frame_end	Left-Cerebral-White-Matter	Left-Cerebellum-White-Matter	Left-Cerebellum-Cortex	Left-Thalamus	Left-Caudate	Left-Putamen	Left-Pallidum	Brain-Stem	Left-Hippocampus	Left-Amygdala	CSF	Left-Accumbens-area	Left-VentralDC	Left-choroid-plexus	Right-Cerebral-White-Matter	Right-Cerebellum-White-Matter	Right-Cerebellum-Cortex	Right-Thalamus	Right-Caudate	Right-Putamen	Right-Pallidum	Right-Hippocampus	Right-Amygdala	Right-Accumbens-area	Right-VentralDC	Right-choroid-plexus	AirCavity	Skull	Vermis	Pons	CSF-ExtraCerebral	Head-ExtraCerebral	ctx-lh-bankssts	ctx-lh-caudalanteriorcingulate	ctx-lh-caudalmiddlefrontal	ctx-lh-cuneus	ctx-lh-entorhinal	ctx-lh-fusiform	ctx-lh-inferiorparietal	ctx-lh-inferiortemporal	ctx-lh-isthmuscingulate	ctx-lh-lateraloccipital	ctx-lh-lateralorbitofrontal	ctx-lh-lingual	ctx-lh-medialorbitofrontal	ctx-lh-middletemporal	ctx-lh-parahippocampal	ctx-lh-paracentral	ctx-lh-parsopercularis	ctx-lh-parsorbitalis	ctx-lh-parstriangularis	ctx-lh-pericalcarine	ctx-lh-postcentral	ctx-lh-posteriorcingulate	ctx-lh-precentral	ctx-lh-precuneus	ctx-lh-rostralanteriorcingulate	ctx-lh-rostralmiddlefrontal	ctx-lh-superiorfrontal	ctx-lh-superiorparietal	ctx-lh-superiortemporal	ctx-lh-supramarginal	ctx-lh-frontalpole	ctx-lh-temporalpole	ctx-lh-transversetemporal	ctx-lh-insula	ctx-rh-bankssts	ctx-rh-caudalanteriorcingulate	ctx-rh-caudalmiddlefrontal	ctx-rh-cuneus	ctx-rh-entorhinal	ctx-rh-fusiform	ctx-rh-inferiorparietal	ctx-rh-inferiortemporal	ctx-rh-isthmuscingulate	ctx-rh-lateraloccipital	ctx-rh-lateralorbitofrontal	ctx-rh-lingual	ctx-rh-medialorbitofrontal	ctx-rh-middletemporal	ctx-rh-parahippocampal	ctx-rh-paracentral	ctx-rh-parsopercularis	ctx-rh-parsorbitalis	ctx-rh-parstriangularis	ctx-rh-pericalcarine	ctx-rh-postcentral	ctx-rh-posteriorcingulate	ctx-rh-precentral	ctx-rh-precuneus	ctx-rh-rostralanteriorcingulate	ctx-rh-rostralmiddlefrontal	ctx-rh-superiorfrontal	ctx-rh-superiorparietal	ctx-rh-superiortemporal	ctx-rh-supramarginal	ctx-rh-frontalpole	ctx-rh-temporalpole	ctx-rh-transversetemporal	ctx-rh-insula
0	30	42.11860275268555	59.7564811706543	48.609676361083984	23.626272201538086	62.13474655151367	62.896671295166016	68.39192199707031	119.28041076660156	128.00021362304688	-8.681559562683105	40.87064743041992	1017.7728881835938	17.524991989135742	-63.63849639892578	36.13594436645508	54.30305099487305	66.1227798461914	152.5535125732422	15.293323516845703	60.0711784362793	-17.30906105041504	21.8734073638916	148.9187774658203	67.42626953125	119.67942810058594	-186.6754913330078	32.89094543457031	46.2054443359375	77.1091079711914	8.540190696716309	57.3243293762207	41.77948760986328	127.72885131835938	180.04331970214844	45.65523147583008	70.72826385498047	213.02621459960938	37.99995422363281	55.866878509521484	53.399017333984375	-18.103620529174805	22.639179229736328	160.69937133789062	29.555988311767578	98.55670928955078	12.793838500976562	61.847740173339844	104.7876205444336	78.59346771240234	-62.545013427734375	29.28105926513672	123.50955200195312	31.08193016052246	109.74341583251953	13.734691619873047	62.284114837646484	49.83597183227539	25.56057357788086	87.44287872314453	6.508931636810303	20.834001541137695	17.987607955932617	84.26049041748047	129.43621826171875	315.4754638671875	219.3403778076172	-43.26475524902344	182.84222412109375	40.62114715576172	31.053632736206055	226.48033142089844	117.00798034667969	26.739240646362305	114.21327209472656	13.015983581542969	15.01485824584961	124.51370239257812	71.31459045410156	175.1389617919922	37.01641082763672	-18.02727699279785	41.827449798583984	177.34156799316406	220.96067810058594	80.57833862304688	31.712387084960938	22.917749404907227	-13.008323669433594	37.7955436706543	103.51282501220703	68.18013763427734	40.14533996582031	39.98614501953125	-1.4888838529586792	136.76364135742188	47.4089469909668	-57.89000701904297	8.673003196716309	229.7025146484375	115.85856628417969
30	60	1160.56689453125	2312.139892578125	3459.64208984375	3836.4453125	5853.58154296875	5751.2822265625	1461.88427734375	2887.33203125	4841.962890625	4444.85400390625	1029.83740234375	7650.97705078125	3864.0	12104.93359375	1242.216064453125	2605.22265625	3257.701416015625	4825.0341796875	5180.45751953125	6763.91845703125	2358.054931640625	4984.1630859375	4222.115234375	8765.7177734375	3102.0849609375	10976.205078125	383.1517028808594	708.469482421875	3116.50732421875	3017.845947265625	2915.114013671875	611.428466796875	6693.009765625	5959.5556640625	7427.80126953125	7975.923828125	3466.494873046875	5353.39208984375	5773.9267578125	4635.826171875	5076.7578125	6688.22314453125	7739.26513671875	6815.85107421875	7745.31591796875	5383.8134765625	3892.0576171875	5941.89208984375	7383.7568359375	6215.6630859375	8670.287109375	13558.765625	7554.90380859375	4824.19287109375	7158.103515625	6467.87109375	6442.8818359375	7830.90478515625	7298.78662109375	6220.13037109375	5516.80712890625	6862.55810546875	8816.5849609375	4235.26611328125	10134.376953125	7271.7177734375	6418.44189453125	6865.30810546875	6246.4345703125	9890.6865234375	4979.67041015625	5629.7900390625	5645.830078125	4036.017822265625	5527.1611328125	7201.96630859375	7765.46923828125	6713.58154296875	6721.00244140625	5155.2919921875	3456.02880859375	6443.51708984375	7579.791015625	7239.1669921875	7474.0673828125	11181.3720703125	6617.1474609375	7792.01953125	6669.5419921875	6576.08837890625	5031.4140625	7583.873046875	7276.90576171875	6332.44921875	5645.267578125	6640.30712890625	8977.45703125	3839.185546875	11716.142578125	5800.58740234375
60	90	3896.251953125	8508.763671875	12316.0625	15784.341796875	21950.421875	21901.986328125	6784.3642578125	10430.34765625	16722.984375	11845.236328125	3646.49462890625	24951.251953125	9734.1650390625	35057.05859375	4014.23486328125	7982.2392578125	11677.7216796875	16949.65234375	22234.576171875	22465.275390625	7264.87548828125	14679.189453125	12101.8291015625	18897.6640625	11845.7890625	31797.294921875	1183.093994140625	2193.969482421875	11078.279296875	10795.544921875	6388.31787109375	2053.939208984375	23340.912109375	17211.876953125	27837.470703125	31944.7265625	13839.0078125	16465.296875	20367.3203125	19768.6328125	23451.505859375	23549.416015625	23973.017578125	24833.8671875	24277.966796875	19101.568359375	12172.1044921875	20542.66015625	24317.40234375	25679.787109375	30176.03515625	40457.625	26348.267578125	18381.181640625	26009.677734375	22719.337890625	21400.26171875	28777.544921875	24130.603515625	22633.033203125	18362.310546875	24308.298828125	30244.953125	14381.1875	33519.76953125	20665.904296875	21484.68359375	18417.912109375	24368.4453125	32597.259765625	15371.185546875	18302.875	21613.755859375	18244.763671875	22401.2734375	25242.658203125	23520.611328125	24825.31640625	24578.404296875	18025.482421875	13807.2041015625	23755.65234375	25775.708984375	25042.83203125	28635.3515625	36006.93359375	25612.26953125	24479.390625	25057.130859375	24032.03515625	14493.51953125	26913.646484375	25719.6484375	22979.81640625	20736.8984375	23372.30859375	31690.423828125	12130.9267578125	33980.56640625	18208.58203125
90	120	7383.08056640625	14463.6455078125	23087.619140625	30867.494140625	40387.296875	40606.68359375	14307.83203125	18168.62890625	27395.52734375	22276.76171875	5766.8466796875	36565.3984375	21544.326171875	55773.76953125	7367.25537109375	14231.1142578125	22653.216796875	30758.966796875	38532.9140625	39649.72265625	14330.0283203125	28395.103515625	19988.216796875	38231.7109375	20951.685546875	57151.51171875	1867.3564453125	3915.911865234375	20107.6953125	22034.603515625	8123.34375	3579.020751953125	41890.45703125	29160.15625	53730.73828125	59559.1953125	23203.697265625	31525.748046875	40001.734375	34484.22265625	38660.984375	43482.73046875	41907.5546875	45313.74609375	46064.27734375	35648.234375	24433.423828125	40380.33203125	46325.62109375	48252.41015625	52167.0703125	78339.5234375	49457.45703125	37822.6875	47173.72265625	43091.3984375	34184.96875	53217.2890625	46905.02734375	44569.6171875	34567.11328125	44055.765625	53541.390625	22396.62109375	59720.81640625	32856.21875	38575.66796875	36919.8359375	48219.03515625	62557.625	23701.00390625	33196.078125	41393.1015625	34060.00390625	44442.50390625	47178.8359375	42482.57421875	45607.08984375	43166.57421875	36290.48046875	25252.6171875	44732.3671875	48417.7421875	46083.27734375	50519.046875	66543.7109375	48858.6796875	44028.8046875	45253.25390625	46854.29296875	32123.041015625	51445.67578125	46732.08203125	43856.81640625	36401.796875	44192.27734375	56687.3515625	25800.93359375	52661.98828125	32756.166015625
120	150	10883.451171875	20901.96484375	34328.83984375	44289.30859375	56476.49609375	61350.22265625	17393.42578125	25566.841796875	37541.74609375	28676.09765625	9015.791015625	51237.74609375	31230.505859375	75411.09375	10424.1806640625	19568.29296875	33586.32421875	44228.08984375	56109.26953125	61495.98828125	19164.498046875	37490.390625	30664.875	36701.01953125	30829.357421875	92661.3125	1628.09521484375	5476.98486328125	32915.63671875	30711.498046875	9327.853515625	5298.2548828125	58039.39453125	45434.71484375	76737.640625	83081.09375	36861.63671875	42966.03125	57654.39453125	50529.55078125	56931.46875	61895.8984375	63284.8203125	65042.671875	66977.4296875	51888.50390625	39766.5859375	56617.8203125	68052.125	66439.7890625	74407.46875	115020.4375	73887.734375	51749.796875	70168.78125	64867.30859375	48894.94921875	77348.140625	67348.5390625	65963.171875	48122.20703125	63843.03125	78681.3828125	37017.234375	87576.125	46715.55859375	57737.375	54782.09765625	71154.1796875	86172.21875	35637.05078125	48686.99609375	61346.04296875	49691.8515625	61213.19140625	68794.8828125	63587.33984375	67813.8125	63461.8671875	51534.8203125	36933.6640625	67334.2421875	69449.6796875	69228.265625	74037.46875	107571.1796875	70253.2421875	65517.296875	67308.09375	68254.671875	48468.2578125	74188.125	67855.484375	64653.28125	54283.91796875	62893.72265625	85016.28125	36426.72265625	90390.1640625	44843.25
150	180	12874.4130859375	24882.732421875	40671.76171875	52199.74609375	67095.875	71148.3203125	25291.71484375	30809.1015625	43674.33984375	35115.05859375	9250.5439453125	61991.02734375	32152.474609375	87863.1796875	12427.00390625	24708.19921875	39304.96875	54784.3046875	68062.046875	72607.84375	15814.6953125	44636.2890625	36515.671875	47825.1640625	35518.76953125	86419.2109375	2077.467041015625	6051.25048828125	32882.125	37767.34375	7314.15966796875	6014.8037109375	68065.71875	58754.15234375	86480.1171875	99336.7734375	37183.6953125	53857.671875	70469.4140625	59266.71484375	65652.21875	71538.3515625	71163.7578125	77506.3515625	71016.859375	60918.12890625	37340.05859375	73263.0546875	75674.875	77621.6796875	88566.0546875	129821.796875	87781.765625	64097.01171875	80453.7265625	74371.5859375	60942.1796875	89237.6328125	78965.359375	77752.9375	58390.0234375	75236.515625	87888.9921875	43163.41796875	100826.515625	51361.82421875	68687.75	58650.01171875	80064.0625	98633.984375	39958.4921875	54467.09765625	72817.390625	58745.94921875	72402.1953125	79306.28125	69757.890625	75999.640625	72146.296875	61890.296875	41313.51953125	76210.8515625	80902.0	78777.9453125	85981.109375	122200.375	85641.9453125	73765.34375	79939.125	76920.3671875	54888.03515625	87555.734375	79805.828125	78743.4140625	61867.9453125	72990.71875	99741.671875	40733.171875	100568.046875	50061.58203125
180	240	13692.7333984375	27000.892578125	41948.53125	54181.38671875	66538.3046875	74653.453125	21256.828125	31030.806640625	45537.28125	36815.2890625	8176.23974609375	63265.0	35153.23046875	73173.28125	12842.6796875	24856.13671875	41428.109375	54580.76953125	72505.78125	74116.953125	22517.337890625	42348.796875	41650.32421875	40856.078125	37538.44140625	95153.9609375	1790.8677978515625	5889.8193359375	36076.44921875	39905.875	5116.51611328125	6249.89208984375	71342.265625	55960.71875	88239.046875	100394.515625	38313.34375	54480.48828125	71155.1328125	60307.49609375	67615.0546875	74512.8203125	72640.375	77270.5859375	73852.578125	61984.91015625	45784.58203125	69613.28125	77754.40625	81445.5234375	88525.4609375	130802.515625	87671.046875	63703.265625	82427.0546875	76235.046875	56826.8125	91148.75	79782.2421875	79884.78125	59963.83203125	76707.8984375	92040.2890625	43392.66015625	99601.21875	52830.953125	67585.71875	64125.2578125	83025.8203125	100576.171875	35474.2265625	55300.984375	75214.859375	60212.05078125	73662.6796875	79922.7265625	70584.9296875	76589.421875	74234.3125	64122.796875	48020.89453125	79820.453125	79343.0859375	80444.53125	87015.578125	119986.3671875	88301.3203125	76698.8515625	81701.0625	81351.46875	55988.97265625	90053.203125	80591.4375	79945.203125	63842.4296875	75416.1328125	97229.015625	43760.53515625	91276.875	49421.140625
240	300	15017.5224609375	26657.337890625	40567.41796875	51635.84375	64310.24609375	67129.34375	29234.53125	29900.84765625	42423.1796875	38984.26171875	8214.080078125	64817.890625	34691.9765625	66746.375	14800.953125	25177.91015625	40072.5859375	53213.328125	67945.28125	69298.5703125	25125.72265625	40593.8125	41599.65234375	52623.91796875	36281.44921875	62785.7734375	1244.0079345703125	6547.86669921875	38467.51953125	37750.61328125	4264.224609375	6497.59912109375	64434.76953125	49895.890625	83531.484375	92837.7734375	35186.05078125	52896.9609375	66716.6484375	57334.83984375	61118.1171875	68365.453125	66889.9921875	71932.7421875	69302.4453125	59360.62109375	43009.9921875	67279.703125	72508.6015625	71805.0625	83335.765625	113476.1640625	83640.0390625	63751.99609375	76023.7734375	70674.484375	58872.515625	82339.5390625	75702.984375	76531.859375	58052.5390625	71616.1015625	77075.5859375	39361.83203125	83096.8125	51565.13671875	67736.3203125	59551.2421875	78225.78125	92979.6328125	38840.0625	53830.5703125	69157.5078125	58559.39453125	72012.4140625	72440.3515625	66399.453125	70060.953125	68132.640625	60187.50390625	46076.8515625	76531.7421875	73234.0546875	75630.046875	80502.1484375	105953.8984375	83338.375	70640.4296875	76125.9609375	76528.328125	51153.80859375	83345.640625	75137.5	74876.859375	61769.3203125	71407.921875	93062.0703125	40418.19140625	85821.703125	46422.40234375
300	360	14841.9189453125	26564.689453125	37381.19140625	49633.71484375	59865.9140625	64253.07421875	28705.654296875	28699.5390625	40008.41015625	39906.65234375	7276.9697265625	60101.61328125	33304.8125	65333.28125	14873.123046875	24891.248046875	37835.5625	49584.33984375	60502.671875	63396.92578125	29842.646484375	41570.6015625	38866.4921875	47016.890625	34441.59375	56193.53515625	1147.414306640625	6584.63330078125	36841.33203125	35243.79296875	3933.709228515625	6851.07080078125	60005.94921875	46185.01953125	73319.53125	82048.6796875	35588.30859375	49768.16796875	61873.5078125	52940.44140625	56763.03125	61602.76171875	61086.73828125	65920.6953125	64422.64453125	55154.53125	42577.54296875	61294.73046875	66321.4453125	65929.546875	73538.296875	101099.84375	76661.0078125	54844.1796875	69746.4296875	66568.4375	52216.82421875	76660.2734375	69220.59375	70541.0234375	53445.09765625	65191.61328125	68424.5078125	39307.62109375	72866.6484375	49630.953125	61742.33984375	53612.2265625	70035.265625	85344.609375	33273.63671875	51559.671875	64359.1953125	55478.9453125	61500.12109375	65586.484375	61756.82421875	63582.69921875	62092.96484375	56595.71484375	40634.53515625	72164.046875	67431.015625	67126.203125	70706.9140625	91169.046875	75656.140625	67028.0546875	68255.75	67150.265625	46259.37109375	74967.6640625	68342.78125	67894.5	58094.578125	65122.9375	81525.6328125	40980.63671875	69039.828125	44561.21875
360	480	14804.4501953125	24772.763671875	33991.50390625	46231.7734375	54339.4765625	57962.37109375	28026.966796875	27686.779296875	34676.5546875	37136.0078125	4648.0830078125	48510.23828125	31515.4140625	46947.92578125	14707.0888671875	23455.716796875	34373.08203125	46168.2265625	55789.60546875	55573.4296875	28137.3203125	34805.60546875	36339.97265625	43710.94921875	33830.58984375	49811.21484375	1208.306640625	6209.73486328125	35264.2421875	32926.265625	2045.551513671875	7028.265625	51417.2421875	42042.29296875	62511.875	72436.203125	33807.46484375	44845.671875	54492.41015625	48733.0625	49771.484375	51442.0390625	54200.1484375	56868.5390625	59231.44921875	48743.9296875	38278.19921875	55594.3359375	56833.1640625	57691.6796875	64355.7265625	83439.9609375	65976.28125	49173.80859375	61078.35546875	57640.94140625	48113.8984375	66523.015625	60696.44921875	63066.08203125	48806.4140625	58011.42578125	61738.97265625	38239.6875	62895.84765625	43963.50390625	52942.77734375	48407.54296875	61972.96875	70756.3828125	32378.4765625	46288.9140625	56667.09375	49746.86328125	53660.8203125	58009.5546875	53144.19140625	52666.9609375	53706.5703125	50123.91796875	38769.6484375	62056.60546875	59621.8359375	61026.0078125	62189.171875	78820.609375	66563.5234375	57106.32421875	59801.73046875	57828.1875	43831.85546875	65764.3203125	60032.453125	61076.8359375	51281.4296875	56839.2421875	74559.9296875	39634.07421875	58262.98828125	41364.06640625
480	600	14933.93359375	23030.537109375	30009.28515625	41233.15234375	44583.640625	49143.2421875	25005.794921875	25186.275390625	29309.001953125	34495.33984375	2920.423095703125	47167.18359375	29877.626953125	32223.376953125	14456.8857421875	22302.84375	30050.845703125	41133.69140625	46657.77734375	47959.4765625	28440.4140625	31726.283203125	34445.1640625	37208.0546875	31132.90234375	38038.7890625	859.2221069335938	5925.38232421875	28720.263671875	30048.494140625	863.7518920898438	7130.189453125	43795.265625	36296.7109375	51488.5390625	59963.7265625	34255.0859375	37974.45703125	44729.5	42082.91015625	42625.5703125	42007.078125	45754.140625	46959.47265625	48656.44921875	41319.09375	34192.27734375	45226.33203125	47305.04296875	49200.53515625	52772.62109375	63262.8828125	53671.92578125	43736.7109375	49929.0390625	46034.5546875	41325.20703125	54456.98046875	49936.7109375	51220.7421875	41848.6015625	48378.859375	48680.203125	34560.484375	49889.890625	38489.4453125	43885.29296875	41729.6328125	51546.63671875	57072.05859375	30132.572265625	39905.03125	47817.18359375	42762.06640625	42654.5546875	46965.00390625	45706.69921875	43371.10546875	45540.4140625	43529.4765625	31269.416015625	49641.05078125	48905.70703125	47496.5078125	52770.30078125	60369.35546875	55661.6015625	47275.45703125	50328.15625	47975.6875	39620.63671875	54123.35546875	49784.74609375	51347.50390625	43712.6796875	47019.81640625	59798.62109375	34285.234375	46392.578125	37032.33203125
600	900	15029.142578125	22172.671875	24057.12890625	33987.5390625	33949.65234375	37225.7734375	26059.408203125	22524.201171875	23846.630859375	30740.736328125	1156.138427734375	34314.94921875	26324.23046875	21031.546875	14553.349609375	20739.197265625	24378.447265625	34378.8359375	34483.9609375	35517.64453125	25623.732421875	24433.94921875	32135.5	30794.927734375	27600.9765625	30483.791015625	754.3777465820312	6027.900390625	21040.4453125	25699.541015625	-341.8409118652344	7308.75634765625	32600.18359375	32805.5546875	38572.03515625	43406.90234375	28902.251953125	29496.576171875	33924.19921875	33117.11328125	32457.28515625	30223.619140625	35843.19921875	34173.0	38180.5390625	32100.00390625	27404.82421875	35054.14453125	35270.0390625	35983.97265625	38608.59375	42766.02734375	39871.3828125	32257.92578125	37379.3203125	35376.53515625	33024.77734375	40635.828125	37870.26953125	39294.6875	32637.134765625	35986.0703125	36454.21875	29122.1328125	35779.52734375	31924.01953125	34617.375	34087.7421875	37875.3671875	42060.15625	26564.333984375	30610.97265625	36903.78125	34255.38671875	33803.19140625	34688.09375	34141.61328125	32696.642578125	35985.7421875	33693.08984375	27938.193359375	38472.328125	36894.19140625	36269.18359375	39600.00390625	40600.71875	41465.51953125	36632.8046875	37973.76953125	35445.79296875	30159.60546875	40752.2421875	37493.71875	39340.55078125	34263.3125	35727.5390625	44521.1875	28836.6796875	31173.33984375	30162.56640625
900	1200	14905.84375	20245.93359375	17864.671875	26174.01171875	23867.267578125	25091.431640625	23798.65625	18838.072265625	16940.970703125	25459.466796875	303.54638671875	21721.298828125	22329.767578125	14691.1083984375	14468.40625	19108.900390625	18410.296875	26259.1796875	23290.88671875	23856.904296875	25261.30078125	18665.69921875	25541.84765625	21935.638671875	24027.478515625	22584.408203125	524.1004638671875	5848.46923828125	15071.580078125	22045.591796875	-835.3382568359375	7500.58740234375	23974.10546875	26200.5078125	27072.166015625	30352.509765625	24497.013671875	22508.560546875	24575.328125	25388.751953125	23533.94921875	21041.919921875	26310.21484375	24987.4140625	28247.53125	23269.15625	21132.345703125	25627.44140625	25222.888671875	26577.375	27798.05078125	29324.1015625	28011.71875	23949.072265625	26940.802734375	25889.392578125	24507.125	28903.21875	27266.693359375	28097.169921875	24388.359375	25702.330078125	25580.244140625	23508.6953125	26497.1484375	24953.67578125	25139.689453125	25379.40625	27534.212890625	29800.80078125	21348.978515625	23394.298828125	26691.55859375	26276.77734375	24829.05078125	25219.666015625	26050.9140625	22454.740234375	26199.326171875	25167.744140625	20038.783203125	27086.9296875	26402.990234375	26670.345703125	29270.984375	27240.90625	29523.05078125	26709.873046875	27320.595703125	24746.470703125	23432.326171875	29786.05078125	26952.189453125	28724.966796875	25518.166015625	25925.25390625	34479.99609375	22583.69140625	25021.30078125	23052.5234375
1200	1500	14732.4794921875	19140.81640625	14036.80078125	20405.388671875	17576.666015625	18284.59765625	22347.1171875	16234.259765625	14510.673828125	20381.2734375	353.378173828125	16164.86328125	19535.271484375	8089.001953125	14295.69921875	17853.068359375	14630.890625	20437.70703125	17146.232421875	18226.025390625	21368.4453125	14958.408203125	21396.69140625	11614.048828125	20286.30859375	18317.267578125	497.1300964355469	5817.0478515625	11105.380859375	18879.77734375	-657.6411743164062	7736.9296875	18946.8984375	19292.236328125	20356.462890625	22595.978515625	20009.69921875	18130.322265625	18748.5078125	20499.244140625	18426.896484375	16535.6640625	21208.947265625	20716.923828125	22156.041015625	18359.125	15800.0693359375	20271.990234375	20076.208984375	22899.97265625	22455.591796875	21434.818359375	21627.759765625	19043.357421875	20991.341796875	20368.369140625	19655.857421875	22988.5625	21292.025390625	22301.99609375	19623.59375	20721.404296875	20771.0703125	19165.65234375	21545.966796875	20606.833984375	19937.166015625	21638.994140625	22196.71875	23418.142578125	18937.552734375	19275.3046875	21155.232421875	21666.630859375	20222.9921875	20123.025390625	21075.076171875	18484.91796875	21483.833984375	20020.056640625	15857.75390625	19809.474609375	22089.5234375	21910.203125	22937.998046875	19227.318359375	23697.48046875	20706.96484375	21455.7578125	19966.75	19756.525390625	23387.35546875	21240.203125	22306.1875	20261.994140625	20404.638671875	25547.533203125	19022.478515625	19919.564453125	18956.861328125
1500	1800	14251.314453125	17270.546875	11439.4384765625	16684.1640625	13650.6044921875	14435.078125	20064.16796875	14055.576171875	11766.3447265625	16122.2314453125	65.639892578125	8393.1201171875	16969.423828125	8840.0732421875	13926.15625	16878.240234375	11857.8115234375	16597.93359375	13467.1611328125	14527.400390625	17852.48046875	12414.0576171875	17495.5234375	8986.3779296875	18162.9296875	16558.7578125	347.91351318359375	5772.3173828125	9567.392578125	17145.70703125	-711.9866943359375	7830.29052734375	16247.330078125	16498.88671875	16885.048828125	20072.513671875	16954.9921875	15853.0791015625	15934.3232421875	17768.9609375	16585.009765625	14147.2041015625	18011.974609375	17533.78125	18754.36328125	15531.419921875	13633.625	16723.736328125	17567.63671875	19103.36328125	18440.990234375	17390.35546875	18320.73046875	15633.84375	16840.30078125	16964.125	17427.296875	19206.435546875	17523.90625	18438.986328125	16588.9296875	17190.052734375	17542.076171875	16542.099609375	18440.72265625	17368.072265625	15835.2685546875	18063.48046875	18785.40625	19438.853515625	16450.52734375	16531.91015625	17817.861328125	18617.5	18914.798828125	17543.4375	18038.92578125	16202.87890625	19633.53125	17178.787109375	13213.7822265625	16467.798828125	18101.033203125	18231.447265625	19244.681640625	17066.814453125	19494.453125	17902.974609375	17618.349609375	16315.35546875	16495.814453125	20035.57421875	17889.67578125	19426.576171875	17380.56640625	17239.396484375	21502.77734375	15836.0654296875	17544.572265625	15890.5869140625
1800	2100	13770.76953125	15456.5263671875	9500.626953125	13624.927734375	9683.7958984375	12011.0400390625	16159.8115234375	11869.625	10499.5078125	14568.0322265625	778.0679321289062	6117.00048828125	15470.8818359375	5623.4423828125	13373.7392578125	14829.541015625	10272.8388671875	13172.115234375	10931.8125	10560.140625	16208.806640625	10559.1240234375	14157.2607421875	6242.70068359375	15385.638671875	10344.0244140625	141.7566680908203	5991.005859375	8397.7373046875	15567.0185546875	-538.2578125	7818.56201171875	14763.5419921875	15275.8388671875	13746.3251953125	16556.86328125	15282.888671875	14376.484375	13592.392578125	16714.919921875	15349.1630859375	12493.208984375	15805.1162109375	15456.095703125	17316.361328125	13099.02734375	11967.052734375	13779.5634765625	15729.3134765625	16537.876953125	15853.71875	14301.134765625	15115.2939453125	14060.5556640625	14465.134765625	14674.35546875	14480.787109375	15628.111328125	14718.064453125	14928.9775390625	14150.9921875	14786.7607421875	12168.919921875	14588.7529296875	16249.7119140625	15406.453125	14641.5859375	15876.7841796875	15789.9609375	16299.1123046875	14009.150390625	15045.107421875	15319.5751953125	17081.103515625	16044.1875	14713.2734375	15538.46875	13499.935546875	15542.3916015625	14792.5810546875	10663.349609375	14569.7919921875	15911.3408203125	15617.998046875	18418.712890625	14568.6083984375	16199.7919921875	15110.49609375	15034.677734375	14944.705078125	13968.0263671875	16778.671875	15046.2880859375	16048.521484375	15024.025390625	14876.9384765625	18807.359375	13544.8681640625	15863.662109375	14399.6396484375
2100	2400	13145.173828125	13448.83203125	7978.71484375	10648.83203125	7617.41748046875	9643.171875	15070.4150390625	10214.1728515625	8727.7734375	12879.1630859375	933.0377197265625	2663.146484375	12342.474609375	6248.48876953125	12789.4287109375	13026.6142578125	8466.7421875	11295.49609375	7880.70458984375	8778.3017578125	13682.0986328125	9121.4267578125	12729.6181640625	2264.712646484375	13936.283203125	8561.61328125	-145.38534545898438	5928.7578125	6292.4814453125	14124.0673828125	-700.7133178710938	7727.4453125	13211.77734375	13903.724609375	12935.8994140625	13624.326171875	12324.4521484375	13810.69140625	12143.3681640625	14577.09375	13291.5263671875	11290.869140625	14091.5107421875	14557.2275390625	14789.34375	12350.6611328125	11354.8935546875	13214.5380859375	13207.9072265625	12748.30078125	14658.673828125	13631.1240234375	12291.6689453125	11642.2265625	12675.5478515625	14020.421875	13222.4326171875	13866.4501953125	12921.0791015625	12810.6181640625	12794.2294921875	12964.05859375	11135.01953125	12697.4501953125	12665.298828125	13613.5419921875	14346.392578125	14902.19140625	13132.8916015625	14465.8701171875	11890.1611328125	14489.3857421875	13168.677734375	16003.939453125	13311.6533203125	13742.7158203125	13928.171875	14267.23828125	14738.435546875	12610.4453125	11073.17578125	12663.80078125	14771.8251953125	13284.341796875	14722.4326171875	13053.103515625	13834.73046875	13313.5498046875	12519.11328125	12278.966796875	13483.640625	14471.83984375	13158.197265625	13974.7666015625	13372.634765625	13274.7666015625	15795.1826171875	12428.236328125	13873.3671875	12926.375
2400	2700	12600.1513671875	12397.248046875	7024.47900390625	8386.287109375	6081.6552734375	8560.099609375	12786.3896484375	8933.755859375	8073.28564453125	10339.251953125	1553.305908203125	19.184581756591797	11733.138671875	3870.052978515625	12357.3974609375	11850.9892578125	7489.98291015625	9017.6640625	6560.5791015625	7468.61083984375	11665.1474609375	7615.19140625	11707.57421875	507.06964111328125	11845.4970703125	2417.383056640625	-215.8907470703125	5717.41357421875	5442.57080078125	12719.9365234375	-742.55078125	7795.61669921875	12364.595703125	10697.3095703125	10501.0087890625	14132.240234375	11475.4296875	12143.4833984375	10263.3017578125	14243.59765625	13520.7841796875	10434.2421875	13243.19921875	13029.99609375	14116.44921875	10043.796875	9987.4326171875	13183.5712890625	12092.373046875	12972.98046875	13160.119140625	11461.0791015625	10174.0146484375	10175.591796875	11011.5546875	12196.0390625	10371.5009765625	11560.7587890625	11315.8955078125	11197.748046875	11752.833984375	11729.4619140625	13078.1767578125	11499.2099609375	14824.11328125	12475.4580078125	12524.427734375	14275.4013671875	11528.61328125	11950.900390625	10173.1611328125	13270.3046875	11722.0791015625	14221.732421875	13151.4677734375	12641.12890625	12421.9833984375	12492.46484375	13013.994140625	12275.26171875	10374.513671875	11616.14453125	14017.3466796875	13189.6083984375	13823.65625	11677.5126953125	12071.1943359375	12438.0361328125	10897.0830078125	12002.169921875	12194.0634765625	12993.244140625	11567.2626953125	11630.4658203125	11990.4365234375	12080.46484375	14557.361328125	10132.0205078125	13157.626953125	11450.4443359375
