frame_start	frame_end	parasubiculum	HATA	fimbria	hippocampal_fissure	HP_tail	presubiculum-head	presubiculum-body	subiculum-head	subiculum-body	CA1-head	CA1-body	CA3-head	CA3-body	CA4-head	CA4-body	GC-ML-DG-head	GC-ML-DG-body	molecular_layer_HP-head	molecular_layer_HP-body	Lateral-nucleus	Basal-nucleus	Central-nucleus	Medial-nucleus	Cortical-nucleus	Accessory-Basal-nucleus	Corticoamygdaloid-transitio	Anterior-amygdaloid-area-AAA	Paralaminar-nucleus
0	30	145.18963	9.02498	97.99348	164.85309	40.17922	210.64722	74.7745	271.53129	61.21862	63.45604	23.53717	110.23511	49.59294	110.56653	69.13933	100.34148	69.3136	122.90749	49.37991	38.27968	34.75539	32.53416	8.53369	10.56171	16.74878	35.43496	55.88245	37.44157
30	60	4613.56564	4822.6893	3546.24144	4229.70788	2956.6075	4981.84057	4329.57031	3963.28193	3602.87298	3677.53726	2860.28323	4736.81535	3196.75133	4560.1529	3557.54377	4576.13558	3528.05505	4134.43152	3462.54419	3101.95646	4270.90474	3134.41622	3338.03574	3358.55597	4165.867	4621.48218	5451.52934	4225.64832
60	90	13901.74502	11267.79018	14111.26758	12492.22736	11465.78518	13004.59694	12353.54342	10402.10673	10744.55722	12208.41663	10603.29461	16219.87569	13320.64962	12840.24111	12519.59743	12829.84689	12270.65429	12901.83877	12023.86117	10162.98623	12675.86334	10938.62697	8985.62406	8983.42939	11382.6438	11373.94207	14190.41905	14059.67856
90	120	19868.22739	21813.48594	21892.29861	21311.98415	20348.22126	20393.36495	19542.00265	19356.28965	20575.21125	20944.7631	19142.57224	24632.78453	22018.73091	23654.31589	21889.62503	23664.64138	21631.72548	21541.4962	21195.95724	19325.97052	21054.10592	23612.74956	18229.38724	19862.8631	21418.98075	20064.70705	18957.26472	21118.29703
120	150	27633.4307	25657.43299	34128.89961	28979.67708	28799.79093	28192.24731	25700.49504	26903.5285	29468.75026	27927.24042	27293.98697	34368.6259	35106.72942	31576.11691	33174.72774	30192.51393	32047.32951	29692.23569	30985.82368	24253.02594	29917.2455	28724.72329	22097.04072	23817.98531	29747.22044	26622.10963	28703.94796	27896.77028
150	180	29846.85833	29515.36584	34995.40345	33973.87195	33378.54186	32959.3634	28942.24807	31666.81428	34283.47528	33664.8502	32125.76478	40359.19849	35435.37581	38846.12299	37024.45895	35453.24897	36117.97897	35822.77385	34546.7633	29390.18161	32486.83869	35309.02085	29429.92037	32714.02967	34394.68704	30379.62177	27149.55797	32513.17323
180	240	30736.84998	32058.96199	37474.2576	34497.2895	34778.80809	36009.10495	31670.36845	35436.74446	34738.57433	34488.13524	33826.05552	37778.60217	39134.66436	36728.49016	38348.75943	35287.7877	37259.78223	36950.00703	36458.29864	31269.57811	33447.85561	37588.31485	27949.42157	32678.81817	36504.73026	31158.49677	28264.00446	33626.94621
240	300	29042.02808	29571.39078	35180.10992	35568.82563	31389.73742	33996.93738	30710.36129	33622.281	34021.73164	32791.45489	31708.12479	37950.71469	33971.75127	38906.69795	35739.83247	36007.96556	34876.66521	35446.29493	33629.50328	33566.72188	33578.68871	35297.36404	30359.06025	32818.31148	34705.83682	29164.2013	31913.01235	30115.93324
300	360	26441.47447	29451.83209	31396.94839	33103.75011	31751.00641	33289.1498	27617.88451	34621.93697	32954.42757	31657.40088	32638.10988	34253.99739	32651.91847	34453.88481	33413.63935	33108.47196	33019.78879	33989.05968	32434.61363	32270.45695	32462.49307	38258.93555	29524.26067	33736.50911	37091.09964	29528.62894	28939.61747	28907.15084
360	480	24250.83068	26195.27344	29428.3303	28740.6824	29261.73009	27554.60838	26491.75109	28687.42903	30362.09281	29264.73998	27330.5816	30537.84327	28053.37196	31222.35346	30310.69754	29503.08073	29747.22376	30183.87701	28711.57191	30248.36716	31108.63501	29673.13217	26046.79387	27638.54706	31125.73582	25765.50955	27357.90625	27991.78025
480	600	21639.8484	22873.95607	24682.16515	26458.66728	24616.37721	25646.66317	23422.96861	26393.79941	26352.48939	25683.13622	23383.81006	25555.87104	24136.56644	28119.20934	25781.93989	26673.30847	25416.82594	26851.39437	24838.86017	28165.06253	26638.04797	29018.9159	24523.40986	25804.40346	26850.48515	23021.8755	28102.38023	22758.42245
600	900	18449.88655	20458.90009	20490.83806	21949.40491	19836.45388	22196.00546	19177.3336	22955.345	22028.08417	22024.22896	21261.29611	21466.681	20591.1222	22366.07699	21521.98416	21923.4828	21420.19906	22737.31225	21131.52464	23945.79369	23608.60638	23251.05138	20643.94772	21761.51693	23569.43882	20958.84312	23518.83259	20537.29728
900	1200	14954.37976	15638.53966	16081.43448	16902.32227	16091.27588	16851.68369	15714.29357	17739.27619	17208.67451	17087.87756	16175.93816	16163.02118	15799.10052	17115.94681	16346.50711	16743.02987	16378.37953	17343.18669	16296.02375	19638.01763	18811.7174	18748.97929	18667.70508	18220.99126	18716.58091	16922.87845	18329.02403	17023.51167
1200	1500	13146.46047	14825.15882	13669.10026	13998.0608	13724.64177	14581.00954	13210.42181	15229.79725	15287.93914	14507.28963	14231.36282	13858.95732	13640.73411	13841.12248	14105.85426	13849.69821	14224.59432	14587.03325	14131.84021	16367.22782	15621.81143	16074.45506	16180.95095	16364.63686	15761.8279	14303.07324	15736.87029	14470.76718
1500	1800	11476.69236	12040.29925	12607.88124	12285.10469	11179.389	12880.90635	11604.30859	12804.98575	12615.81857	12477.99519	11389.70898	12207.63983	12414.303	12166.71697	11964.86106	12276.66858	11933.32011	12613.66059	11922.96867	14048.32518	12283.54025	12717.54193	14227.52614	13771.1077	12202.80382	11725.93555	13267.99602	11578.804
1800	2100	10486.56595	11333.19666	10934.08255	10820.63858	10286.82605	12011.23632	9822.36701	12414.32589	11304.47859	11311.24709	11291.61861	10288.54414	11706.07802	10214.72354	10792.32104	10538.60831	10875.0048	11359.98013	11030.12246	12280.8624	11133.27149	13302.40922	13703.76825	12757.81185	11578.3567	11206.38818	10613.08301	10831.99323
2100	2400	8905.55319	10957.46647	10029.12708	9268.32762	8760.30901	9633.07809	8441.96824	9795.32101	9619.09151	9828.12262	9571.7698	9683.5222	10440.25484	9181.08432	9507.3167	9619.02834	9485.06995	9614.72257	9468.13782	11114.02159	9861.11008	11382.6434	11529.43307	12026.72917	10632.98588	9599.25985	8972.62129	9169.4838
2400	2700	7326.63884	10042.81737	9106.81654	7921.29128	8370.12667	7704.91571	7127.73439	8980.80366	8365.18763	8967.82759	9507.13777	9278.57533	10042.29391	8236.85906	8728.8168	8662.1082	8797.20852	8581.208	8795.15359	10186.57389	8352.31673	9594.86661	11396.42758	10268.42983	8912.29622	8527.92051	8919.13918	7583.31745
2700	3000	8143.9379	8416.13581	9044.1692	7777.20343	7020.80163	7979.09446	7737.58849	8519.98058	8249.62422	7556.45396	8177.6092	7281.15198	10006.80156	7107.62672	8386.87877	7422.09555	8326.80195	7594.56133	8445.53965	8202.24965	6401.3977	7884.02157	9040.88045	8572.6489	6573.31261	7106.54515	7590.24683	6794.2263
3000	3300	7014.81125	9230.89564	8209.44071	6537.54956	6531.67979	6711.46304	6473.84799	7846.3887	6885.09584	7416.51069	7384.63326	6761.29817	8729.93545	5734.13099	7460.81504	6482.01007	7389.32218	6918.34803	7408.06471	7695.80273	6678.3366	8750.35522	10249.43818	10035.73763	7819.63527	7973.60653	6507.66767	7207.70742
3300	3600	6105.51858	9282.75865	7225.21998	6009.00801	7017.10347	5846.74879	5852.45749	7056.53415	6068.25841	7188.44808	7359.24933	6749.44415	8373.65728	6002.16605	6647.86516	6534.76986	6486.20818	6680.83117	6778.66794	6984.95347	5716.26804	6345.33183	7876.86028	8534.08096	6802.49403	8148.51418	6204.04653	6327.56709
3600	3900	6433.02856	6705.47994	6662.02043	5839.12779	6363.52815	5897.96085	6010.06576	5772.44611	5721.48156	6269.62341	5670.0315	6841.36339	7278.33772	5696.02372	5869.65772	6053.81548	5788.32174	6091.02839	5982.18158	7670.28224	5177.51239	5821.97822	6495.12909	6703.31238	5342.25148	5619.97778	6058.47538	5742.02642
3900	4200	3824.82306	5109.84993	6473.16266	5824.43417	6253.48701	4815.36754	6061.27279	6673.18019	5722.61835	5593.63865	5737.46824	6342.64658	6850.13837	6020.16927	5851.12279	5883.16599	5781.52866	5827.80639	5873.39486	8202.19264	6043.23315	6733.70588	7230.3095	6718.66985	5550.21388	5358.91784	6355.14771	6166.75505
4200	4500	4022.6477	6137.95828	5746.20734	4801.43264	5064.69648	3847.55172	4876.7409	5520.68875	5166.06799	5499.32757	5762.82717	5063.92862	6123.82761	4285.7416	5365.4399	4515.94654	5385.39086	4956.34255	5553.55275	6649.32793	5663.07562	6761.36776	5976.45399	5947.60249	5711.02505	4739.46698	5471.45027	5159.38797
4500	4800	4115.49209	5527.05966	5309.70903	3702.45746	4162.48219	4026.35216	3824.16143	4117.70901	4470.70512	4643.81767	5020.99626	3386.77135	6247.41621	3133.89667	5076.25739	3465.91768	4958.4709	4207.17924	5001.05794	5597.24721	4419.78658	5647.22358	6753.21394	5386.89594	5210.11582	5211.58981	3643.78969	4480.8024
4800	5100	3924.90308	6014.63367	4534.33826	4688.9046	5279.96783	4374.11668	3598.68589	4044.40697	4061.39913	5265.68679	6152.59803	6747.8593	6046.19568	5181.40529	4655.82586	5532.84534	4806.66332	4995.97312	5021.92987	6246.6083	4044.53019	4640.94157	3894.35119	5637.72068	5588.67525	5542.29752	3548.67093	3688.39111
5100	5400	5114.45762	4713.72221	5245.47206	4878.37134	4522.32314	4470.49333	4596.301	4258.53159	5050.56448	4808.39437	5411.63337	7066.26119	5882.22419	5617.47785	5685.53236	5417.55634	5511.23887	5186.68677	5343.77388	4275.09323	3906.66226	5162.57904	5684.39175	5989.05887	4852.3479	4912.10859	4836.84052	4060.8031
