frame_start	frame_end	Left-Cerebral-White-Matter	Left-Cerebellum-White-Matter	Left-Cerebellum-Cortex	Left-Thalamus	Left-Caudate	Left-Putamen	Left-Pallidum	Brain-Stem	Left-Hippocampus	Left-Amygdala	CSF	Left-Accumbens-area	Left-VentralDC	Left-choroid-plexus	Right-Cerebral-White-Matter	Right-Cerebellum-White-Matter	Right-Cerebellum-Cortex	Right-Thalamus	Right-Caudate	Right-Putamen	Right-Pallidum	Right-Hippocampus	Right-Amygdala	Right-Accumbens-area	Right-VentralDC	Right-choroid-plexus	AirCavity	Skull	Vermis	Pons	CSF-ExtraCerebral	Head-ExtraCerebral	ctx-lh-bankssts	ctx-lh-caudalanteriorcingulate	ctx-lh-caudalmiddlefrontal	ctx-lh-cuneus	ctx-lh-entorhinal	ctx-lh-fusiform	ctx-lh-inferiorparietal	ctx-lh-inferiortemporal	ctx-lh-isthmuscingulate	ctx-lh-lateraloccipital	ctx-lh-lateralorbitofrontal	ctx-lh-lingual	ctx-lh-medialorbitofrontal	ctx-lh-middletemporal	ctx-lh-parahippocampal	ctx-lh-paracentral	ctx-lh-parsopercularis	ctx-lh-parsorbitalis	ctx-lh-parstriangularis	ctx-lh-pericalcarine	ctx-lh-postcentral	ctx-lh-posteriorcingulate	ctx-lh-precentral	ctx-lh-precuneus	ctx-lh-rostralanteriorcingulate	ctx-lh-rostralmiddlefrontal	ctx-lh-superiorfrontal	ctx-lh-superiorparietal	ctx-lh-superiortemporal	ctx-lh-supramarginal	ctx-lh-frontalpole	ctx-lh-temporalpole	ctx-lh-transversetemporal	ctx-lh-insula	ctx-rh-bankssts	ctx-rh-caudalanteriorcingulate	ctx-rh-caudalmiddlefrontal	ctx-rh-cuneus	ctx-rh-entorhinal	ctx-rh-fusiform	ctx-rh-inferiorparietal	ctx-rh-inferiortemporal	ctx-rh-isthmuscingulate	ctx-rh-lateraloccipital	ctx-rh-lateralorbitofrontal	ctx-rh-lingual	ctx-rh-medialorbitofrontal	ctx-rh-middletemporal	ctx-rh-parahippocampal	ctx-rh-paracentral	ctx-rh-parsopercularis	ctx-rh-parsorbitalis	ctx-rh-parstriangularis	ctx-rh-pericalcarine	ctx-rh-postcentral	ctx-rh-posteriorcingulate	ctx-rh-precentral	ctx-rh-precuneus	ctx-rh-rostralanteriorcingulate	ctx-rh-rostralmiddlefrontal	ctx-rh-superiorfrontal	ctx-rh-superiorparietal	ctx-rh-superiortemporal	ctx-rh-supramarginal	ctx-rh-frontalpole	ctx-rh-temporalpole	ctx-rh-transversetemporal	ctx-rh-insula
0	30	104.50332641601562	106.59965515136719	183.76504516601562	187.2139434814453	228.1177520751953	242.11582946777344	236.6807403564453	249.0636444091797	183.90084838867188	780.1195068359375	132.96060180664062	-367.1552429199219	218.16549682617188	264.87274169921875	101.79402923583984	141.845947265625	187.9068145751953	212.7313995361328	36.991127014160156	148.84669494628906	111.86437225341797	386.49285888671875	591.8744506835938	1046.5604248046875	243.6869659423828	899.3549194335938	45.07872009277344	106.58853912353516	53.35382080078125	142.90570068359375	155.4242706298828	76.35831451416016	363.9545593261719	334.3773193359375	278.12322998046875	339.7924499511719	744.500732421875	240.14158630371094	319.7178039550781	111.4993896484375	149.27696228027344	152.1264190673828	454.9775390625	336.8980407714844	547.3135986328125	195.46441650390625	400.7448425292969	51.01353073120117	388.48675537109375	289.5648498535156	307.18218994140625	96.9456558227539	259.7657775878906	531.5631713867188	333.0687561035156	291.066650390625	633.49072265625	302.36663818359375	238.44105529785156	164.294921875	310.9002380371094	245.49855041503906	261.3636169433594	688.7919311523438	602.03076171875	605.15234375	282.2084045410156	755.5894165039062	184.8092498779297	473.4741516113281	435.9832458496094	230.24183654785156	187.16981506347656	262.66156005859375	457.1095886230469	67.1080093383789	368.4108581542969	340.27618408203125	153.7494354248047	167.24252319335938	704.7201538085938	558.032958984375	370.79815673828125	132.03501892089844	280.94073486328125	509.45947265625	287.0375671386719	-3.5179443359375	154.73313903808594	310.5312805175781	167.57839965820312	200.93028259277344	296.1447448730469	43.32563400268555	336.8764343261719	280.0804138183594	318.3676452636719	371.5492858886719	953.388671875	753.37646484375
30	60	1623.6630859375	3564.88623046875	6452.23779296875	7043.81689453125	7935.93408203125	8754.51953125	4725.8203125	4790.36962890625	6567.30615234375	5454.5078125	842.541015625	8328.6376953125	5899.52490234375	14923.4658203125	1694.4178466796875	3321.910400390625	6471.48779296875	7588.2861328125	7701.2978515625	8218.2841796875	4461.5166015625	6152.62158203125	5997.8271484375	7185.54296875	5878.2783203125	11664.37890625	574.0529174804688	1245.89892578125	6200.98291015625	5570.28076171875	2841.725830078125	1378.975341796875	8657.2373046875	9050.8203125	9493.91796875	14041.2216796875	8881.5537109375	7572.50390625	9014.90625	8405.5185546875	12072.55859375	10192.455078125	10853.2998046875	10694.5439453125	9874.5869140625	8443.236328125	7726.6025390625	10154.7490234375	10128.3046875	13474.5791015625	11129.2080078125	17200.837890625	9886.1767578125	9912.8076171875	10756.7216796875	10445.1025390625	8671.0205078125	10734.865234375	9667.8056640625	9167.4091796875	8462.6494140625	10332.234375	12662.8388671875	5898.18115234375	14815.1552734375	9557.794921875	9471.9931640625	10052.7177734375	11124.7138671875	12897.3349609375	7782.54248046875	7091.07275390625	8112.83251953125	8219.6787109375	10309.88671875	9097.494140625	10624.1181640625	10882.359375	9246.95703125	7692.14794921875	7707.970703125	10823.8212890625	10502.841796875	10174.16796875	10197.0869140625	12629.1787109375	8504.056640625	9122.0732421875	8614.6298828125	10031.642578125	11546.0751953125	9491.158203125	9222.650390625	8564.2275390625	8315.3955078125	9047.798828125	13268.6474609375	6345.83935546875	17509.50390625	9644.5087890625
60	90	5048.595703125	10216.8544921875	18863.953125	21620.458984375	24599.248046875	25395.630859375	10308.189453125	12473.3515625	15244.2998046875	17313.6875	2385.169921875	21214.998046875	15884.556640625	37645.18359375	5403.87060546875	8995.4169921875	18568.875	20899.201171875	23527.53125	24168.8359375	12323.96484375	13372.47265625	16624.8671875	21425.13671875	15554.9921875	37706.2109375	1153.37890625	3099.652099609375	17793.18359375	15152.1806640625	5299.76513671875	3793.45263671875	23236.13671875	22097.8203125	29632.15625	39412.85546875	21619.78125	23438.392578125	27268.123046875	23307.55859375	31980.900390625	30764.796875	31352.013671875	30052.685546875	27407.189453125	23951.208984375	17538.2109375	26039.830078125	28637.75	33252.4296875	30049.232421875	49651.7734375	31275.029296875	30795.318359375	31235.09375	29959.609375	21228.0	32274.83203125	27710.30859375	28318.203125	21784.81640625	29055.80859375	36028.6484375	20244.662109375	39728.72265625	20947.1171875	23664.890625	26713.365234375	29810.314453125	39194.54296875	26000.92578125	17973.841796875	25478.69140625	23434.220703125	27981.41796875	29042.083984375	31483.576171875	30388.0703125	23958.955078125	22427.1953125	16873.154296875	27987.513671875	28742.76171875	30289.193359375	27539.01953125	36755.1015625	26487.904296875	28680.05078125	27687.279296875	28926.642578125	27012.478515625	29134.83203125	26880.443359375	24847.650390625	21707.201171875	25864.771484375	34402.4296875	18509.4453125	36395.02734375	22392.705078125
90	120	8366.4609375	16735.224609375	32410.91015625	35396.9765625	41694.8515625	44521.734375	16091.0263671875	22240.322265625	28362.302734375	26812.080078125	3870.4736328125	42077.46484375	26273.1640625	55472.02734375	8981.2724609375	16664.10546875	32440.419921875	36126.81640625	42425.7578125	42929.125	21790.74609375	25553.68359375	30193.18359375	26284.08203125	24011.916015625	45287.4296875	1723.2662353515625	5415.41064453125	31451.080078125	24193.31640625	6078.81005859375	6367.2451171875	41964.46875	41473.3359375	49555.046875	66520.9609375	37819.92578125	39191.80859375	46460.4453125	41045.5	51744.0546875	53479.2734375	54270.70703125	49690.4140625	46512.21875	40912.88671875	29009.212890625	47672.953125	49669.98828125	59427.078125	52902.42578125	80880.7265625	55141.25390625	45426.30859375	51049.57421875	52860.578125	41014.08203125	55250.0234375	47366.25	47815.56640625	38043.2734375	48698.59765625	61618.55078125	27442.486328125	65252.4140625	38115.015625	42334.02734375	41971.125	55217.4296875	67211.4921875	44698.6484375	32928.77734375	44769.17578125	43123.40625	50014.38671875	51944.7421875	52215.29296875	49866.6796875	42749.71875	39595.1015625	27926.2890625	44413.828125	48887.91015625	54685.51953125	49540.27734375	65927.1171875	47582.71484375	50633.48046875	46931.1640625	49790.2734375	39390.01953125	50752.0703125	47494.1640625	47827.453125	38035.46484375	45975.62890625	66448.6640625	28658.76171875	64576.1640625	33166.1875
120	150	11080.4814453125	21571.609375	43094.37109375	45360.9765625	52368.9765625	58724.73828125	22221.248046875	27392.59765625	32266.7578125	37120.71875	4629.9423828125	43021.47265625	34304.75390625	70736.953125	11622.1142578125	20424.373046875	42696.0546875	45965.5390625	58271.4921875	57471.94921875	26867.09765625	30332.708984375	35995.93359375	41303.53515625	31931.587890625	71265.9375	1946.1197509765625	6602.50341796875	40936.2890625	33356.171875	4970.48046875	8067.15283203125	56443.8828125	55963.6875	66172.4921875	86471.0078125	44518.29296875	50911.06640625	63787.73828125	53423.8984375	61985.7109375	69827.8828125	65355.53125	61139.79296875	57800.93359375	55160.265625	40003.546875	61534.63671875	64305.34375	78214.4375	67634.6796875	109675.7421875	72669.328125	66605.8515625	68250.25	67851.359375	50263.984375	72901.171875	62448.8125	63764.35546875	49364.4296875	65109.40625	78753.3125	35505.0234375	75751.15625	46978.1875	58827.21484375	54972.8671875	69524.0234375	86489.03125	53464.83203125	42002.7890625	61056.515625	55620.9375	66104.1484375	69006.9921875	65520.02734375	64335.5078125	54863.91796875	53025.17578125	38805.53125	63840.28515625	60828.5703125	71477.5546875	62943.81640625	86660.28125	59697.34375	65727.671875	63289.8359375	64458.01953125	51776.55078125	67293.171875	61439.08984375	64722.3671875	46945.31640625	60647.69140625	75854.953125	35712.1875	83907.671875	40047.76171875
150	180	11701.1748046875	22916.37890625	45505.92578125	47922.28515625	55937.66796875	62104.2578125	24645.962890625	27865.748046875	36475.16015625	35422.04296875	6111.32373046875	44848.421875	37894.33203125	68855.0546875	12373.572265625	22039.833984375	44377.8828125	49254.9921875	58201.70703125	61080.609375	30164.1484375	34884.43359375	31721.056640625	51391.109375	34929.94140625	65958.640625	1802.3135986328125	6664.25732421875	44506.5078125	34097.96484375	2734.2041015625	8661.88671875	56011.359375	57532.3203125	70810.359375	88055.296875	45123.7734375	56513.60546875	68786.8125	56665.8203125	67189.8515625	73778.1171875	69788.078125	66565.265625	63160.71875	60254.35546875	37583.64453125	71424.953125	66215.7890625	80779.21875	73977.3828125	108101.2265625	77090.796875	68627.3203125	70639.8125	71529.859375	52630.29296875	77213.9765625	65685.296875	71222.2734375	53291.0703125	68776.0703125	81102.7109375	38249.671875	79715.84375	45997.2578125	63433.63671875	62359.12109375	74591.3125	86738.3046875	49074.4375	45313.7421875	67380.015625	59310.1484375	58637.3671875	76394.8359375	68204.5703125	67303.15625	60548.46484375	57133.33984375	32147.515625	68670.2265625	67054.296875	77025.4453125	68094.9296875	91388.984375	66658.1015625	68098.9140625	68261.890625	70859.796875	47774.77734375	71926.359375	65505.265625	69724.40625	49227.5546875	66364.546875	82961.40625	34802.1328125	88559.0625	43170.0
180	240	12424.357421875	23735.859375	45790.140625	50703.0703125	56372.10546875	61949.5	26192.29296875	28624.306640625	36614.4765625	36016.59765625	4258.15478515625	53810.38671875	36607.953125	59360.0078125	13324.7919921875	21941.0625	44818.8125	48969.52734375	59876.2578125	62619.48828125	30314.52734375	33098.60546875	36010.33984375	50493.9609375	35368.03515625	56727.8671875	1500.08056640625	7235.1962890625	45216.4609375	34935.2734375	991.0736083984375	8848.9677734375	58213.51953125	58035.44140625	71348.453125	90590.5625	43111.03515625	56962.7421875	69917.015625	56964.578125	65320.54296875	74574.75	71904.09375	65138.53515625	65731.3125	58415.25390625	41818.59765625	66513.0703125	67639.1953125	76973.703125	74366.3828125	105510.5234375	79357.1484375	66718.3359375	73315.5859375	73254.703125	53750.06640625	75588.2421875	65844.71875	73131.171875	53236.42578125	70352.515625	79556.3046875	39869.5234375	79151.3125	45893.42578125	61324.859375	55643.26953125	74339.4609375	85166.3125	51947.87890625	46910.94140625	67378.2734375	59793.546875	60401.44921875	75545.03125	68905.90625	69374.1171875	60492.9140625	57229.11328125	34799.39453125	69562.9609375	67272.296875	75695.9609375	67524.9765625	90524.6171875	67196.2421875	69776.109375	67044.3046875	69530.984375	50582.29296875	72636.9921875	66009.984375	71408.265625	50754.046875	65993.0625	81549.578125	34313.1484375	86076.546875	43345.0390625
240	300	12678.37890625	23645.36328125	44256.765625	48696.32421875	53726.2734375	61739.19921875	25887.544921875	28078.453125	33950.05078125	34985.8203125	3271.16796875	50679.46484375	35072.8046875	46991.7890625	13170.6611328125	22435.6953125	43146.5625	48506.39453125	58513.01171875	60943.58203125	30927.662109375	31935.80078125	35731.31640625	44714.11328125	34327.59375	46980.828125	1089.637939453125	7276.8125	41537.65234375	33337.875	170.63523864746094	9012.9462890625	59825.92578125	55913.73046875	66680.7734375	81419.8125	41520.0703125	54480.3671875	65028.1484375	55761.7265625	56964.30859375	69440.203125	68065.4375	61464.46875	62313.125	57250.89453125	39513.3984375	68367.2734375	63820.734375	72908.6484375	69234.953125	94966.46875	73529.90625	65221.01953125	68627.1640625	67304.4375	45783.06640625	71631.9296875	63249.48828125	71322.15625	51088.19140625	66741.640625	74522.7734375	39184.96875	72423.3046875	45860.265625	55395.8359375	54174.43359375	68812.109375	79960.84375	50164.796875	45818.37890625	64901.6328125	57906.14453125	61091.59375	71574.5859375	68061.53125	64142.0234375	57442.75	55097.0078125	39401.9140625	63080.71875	61687.84375	69349.6953125	64174.2578125	81721.4453125	63672.328125	63558.703125	63843.54296875	65139.71875	51799.42578125	68235.2109375	62930.01953125	69324.5546875	49286.87890625	62768.76953125	78805.265625	33491.046875	67834.5078125	41491.3671875
300	360	12972.947265625	22868.98046875	41258.73828125	46015.98046875	52966.90234375	59826.89453125	26403.62890625	26235.306640625	31295.75390625	36055.03515625	2345.220458984375	49057.61328125	34363.0078125	43262.80078125	13646.470703125	20748.25390625	40786.765625	44929.4453125	53682.71875	55368.79296875	32944.88671875	30694.37890625	34234.25390625	40267.41796875	33501.046875	34909.9375	946.1804809570312	7116.1806640625	39355.8359375	30753.90234375	-123.91338348388672	8912.232421875	53032.9609375	55504.5	63164.87109375	74410.5390625	41897.12109375	51456.35546875	61699.65625	51267.234375	54361.03125	65520.12890625	60994.703125	55725.40234375	60090.21484375	54013.52734375	39379.99609375	58579.55078125	59957.99609375	70862.8046875	65425.94921875	87382.8203125	69005.0078125	60982.41796875	64980.05859375	63744.5703125	44304.703125	67229.9453125	58636.1015625	64440.81640625	49221.54296875	61571.33984375	75563.859375	37762.890625	63952.8203125	44704.953125	52204.65625	50051.44140625	64351.94140625	71585.296875	46083.015625	43745.4140625	60572.359375	53972.15234375	55377.72265625	66975.46875	62455.875	60938.05859375	54313.82421875	52339.6015625	35330.63671875	64953.3984375	59398.37109375	66009.5546875	59948.96875	73069.984375	60911.88671875	55619.8125	58504.2578125	60361.92578125	50656.84765625	64113.62890625	58390.75390625	65778.609375	46809.90625	57771.671875	71111.2421875	34556.48828125	63912.18359375	40141.265625
360	480	13267.0048828125	21660.46875	37280.10546875	42460.0078125	48575.55078125	52803.953125	25673.75	25791.83203125	30191.232421875	33561.046875	703.91552734375	40485.671875	32544.751953125	27431.72265625	13697.533203125	21420.072265625	36259.85546875	42859.9609375	50296.11328125	51520.03515625	31298.787109375	28622.90625	34990.390625	41122.7109375	31173.98046875	23184.05859375	846.3189697265625	6686.67578125	34626.1328125	29505.291015625	-187.93699645996094	8763.919921875	46428.58203125	46765.35546875	54676.12109375	63833.83203125	38909.5	46987.31640625	55480.63671875	46374.35546875	46974.9453125	56624.453125	56500.640625	48182.578125	54113.9609375	49552.3984375	36413.8828125	55502.52734375	52769.78515625	60504.984375	58154.42578125	70792.078125	61151.09765625	52248.0859375	57116.7421875	55142.06640625	43544.203125	59870.2890625	52941.01953125	58480.3828125	44930.91796875	54086.98046875	62353.40625	33412.7109375	54496.20703125	40660.98046875	49929.6875	45355.9375	56194.87109375	64010.66015625	43012.359375	40186.13671875	54070.03125	50407.73828125	47017.19921875	59525.9375	56958.46484375	53452.14453125	49891.68359375	45887.0546875	32498.953125	54460.296875	51147.28125	59279.79296875	52895.6484375	63552.9921875	53340.83203125	53239.3515625	52684.2109375	53641.53515625	42783.27734375	56848.71484375	52032.8125	56510.91796875	43053.9609375	50763.12109375	64203.4765625	32628.640625	58744.60546875	36738.0390625
480	600	13354.4296875	21076.7578125	32362.833984375	37970.16015625	41401.51171875	46487.5625	25695.421875	23733.20703125	28074.919921875	31087.94921875	793.4729614257812	35406.47265625	28762.0390625	20411.763671875	13812.6005859375	20262.89453125	31559.70703125	37961.421875	41949.8125	44495.69921875	28511.337890625	25428.74609375	34290.46484375	33966.59765625	29406.29296875	8982.1259765625	581.1953735351562	6518.77197265625	29739.626953125	27267.77734375	-551.8861694335938	8438.1474609375	41083.8515625	44192.3515625	47725.25390625	54137.03515625	35590.6484375	41174.1328125	47779.86328125	41579.86328125	45484.0859375	47905.7109375	48571.08984375	40682.31640625	47137.96875	43173.9609375	33028.5859375	46533.69140625	45101.0625	49579.79296875	50099.93359375	58757.16796875	52408.62109375	45850.32421875	47969.75390625	45560.8984375	37287.94140625	51471.98828125	45724.4140625	50248.8515625	39856.86328125	46878.94921875	54344.07421875	31946.232421875	47825.13671875	37059.8828125	43324.3203125	39447.6796875	48575.53125	54132.09765625	41966.89453125	35624.19140625	46230.25390625	43944.05859375	38751.0234375	50378.30078125	48260.80078125	45361.3203125	43694.18359375	40545.5	28990.572265625	47490.8984375	43525.44921875	49963.109375	44105.25390625	49712.08984375	44361.53515625	43013.2734375	45312.8515625	44539.25	37985.796875	48103.05859375	44726.5234375	49054.36328125	37224.75	43764.0078125	56251.140625	32992.21875	45684.9140625	34118.5625
600	900	13885.9345703125	19974.6953125	26109.84375	32425.93359375	32540.9765625	37166.79296875	26106.6484375	21892.279296875	23495.609375	29763.361328125	-242.03982543945312	28038.630859375	26977.310546875	23359.513671875	14210.5927734375	19268.826171875	25657.275390625	32888.3125	34758.90234375	35694.30859375	28681.830078125	22503.181640625	30396.1171875	27275.263671875	27007.490234375	10072.3232421875	246.93775939941406	6405.92919921875	23342.216796875	24218.556640625	-379.8350524902344	8098.931640625	32437.8046875	33369.42578125	36224.91015625	40974.171875	31536.904296875	34708.58984375	38402.94921875	34061.64453125	34749.40625	37556.40625	39272.875	31960.234375	38804.6015625	36078.34765625	28361.37109375	37814.8984375	36226.01953125	38613.8984375	39767.58984375	43190.76171875	42187.18359375	35018.80859375	39314.77734375	36260.6640625	31397.095703125	41772.8828125	37052.40234375	40383.47265625	33283.828125	37464.98046875	45170.94140625	27796.791015625	38496.00390625	31570.86328125	33547.8984375	30413.330078125	38368.05859375	41833.16015625	35431.11328125	30362.94140625	37332.16015625	36570.69140625	31319.82421875	39874.59765625	39560.57421875	35916.94921875	36915.76953125	33166.91015625	26314.724609375	37034.5546875	34914.4375	39338.625	36032.046875	37607.765625	35645.44140625	35007.5703125	35203.046875	35373.88671875	30868.740234375	38405.14453125	36286.6875	38640.1953125	31675.87890625	34718.6484375	47244.7890625	30535.404296875	36024.39453125	28922.447265625
900	1200	14427.109375	18726.962890625	20472.755859375	26089.046875	24027.615234375	27493.556640625	23622.830078125	19751.197265625	19360.98828125	25004.833984375	-543.6053466796875	23060.029296875	23464.244140625	14975.2138671875	14380.4736328125	18278.990234375	20002.20703125	26988.908203125	24342.259765625	28389.947265625	25547.560546875	18858.025390625	25363.28125	19258.55859375	23267.619140625	8309.5654296875	-25.819046020507812	6376.70458984375	18223.580078125	21194.31640625	-306.4762878417969	8024.9541015625	26475.07421875	27834.755859375	28500.2890625	33481.5625	27424.076171875	28287.875	30593.076171875	27921.248046875	26538.103515625	29220.958984375	31853.62109375	24607.595703125	30399.076171875	28620.296875	22926.80078125	30631.62109375	28545.18359375	31073.646484375	31704.7265625	32916.91796875	32184.814453125	27987.73046875	31148.05859375	28198.3359375	26339.73046875	32761.240234375	29490.771484375	31926.423828125	27116.55859375	29781.576171875	36932.98828125	24991.015625	29326.353515625	27163.283203125	26050.328125	23699.001953125	30505.36328125	33598.6640625	30522.638671875	25174.015625	29665.53125	29777.4375	26136.193359375	31740.849609375	32004.416015625	27670.822265625	30114.001953125	25884.1640625	21017.912109375	29765.30078125	27483.41796875	30868.802734375	28635.689453125	29233.341796875	28797.87890625	27180.041015625	28316.138671875	28281.146484375	27193.23828125	31465.86328125	28632.751953125	30613.521484375	25998.916015625	27896.849609375	35822.4453125	27099.8359375	25614.830078125	24512.029296875
1200	1500	14736.8525390625	17851.5546875	17260.658203125	22203.431640625	18936.791015625	22927.423828125	23079.490234375	17849.96484375	16752.873046875	22184.20703125	-971.4987182617188	14370.23828125	22330.291015625	12791.8134765625	14619.3828125	17419.205078125	16909.078125	22820.158203125	20715.87109375	23271.455078125	23371.74609375	16086.029296875	23115.92578125	18359.908203125	21631.9375	12425.69140625	-31.323637008666992	6344.1533203125	15030.06640625	19661.48828125	-270.7270202636719	8135.22412109375	23214.5703125	21663.783203125	24891.76171875	30144.12109375	23887.974609375	24975.056640625	26038.453125	24767.876953125	24734.53515625	25036.521484375	27112.400390625	22165.861328125	26527.208984375	24358.759765625	20032.09765625	25907.689453125	25422.8671875	29645.482421875	27857.5625	27407.021484375	28701.875	23490.68359375	26849.650390625	23992.57421875	21603.3984375	28390.548828125	25073.861328125	28250.30859375	23452.03515625	25895.671875	32472.275390625	22990.166015625	26822.4453125	23383.15625	22270.05859375	21309.068359375	26408.611328125	28806.044921875	25880.55078125	21337.15234375	26267.228515625	25462.900390625	23139.919921875	27998.41796875	26321.916015625	24173.296875	26649.201171875	22509.908203125	21725.208984375	24862.318359375	24642.8046875	28185.228515625	25491.705078125	26658.478515625	25236.98046875	23815.986328125	24769.68359375	24760.40625	22260.388671875	27026.12890625	25028.6171875	26582.076171875	22860.5390625	24032.556640625	33176.04296875	22476.642578125	22354.025390625	21477.271484375
1500	1800	14669.10546875	17094.431640625	15353.9443359375	19473.125	16452.77734375	19392.625	23110.94140625	15925.3916015625	14632.0146484375	19872.69921875	-347.5768127441406	14089.2763671875	20801.1796875	13332.369140625	14701.5078125	16900.07421875	14944.927734375	19951.1015625	17341.265625	19720.98046875	21773.02734375	14552.2265625	18894.3828125	12774.0947265625	19603.654296875	8039.46630859375	-190.8773956298828	6388.875	12574.076171875	17991.03515625	-243.0385284423828	8231.9755859375	22052.955078125	20765.58203125	22181.166015625	26139.681640625	21375.8359375	23365.328125	23802.0390625	22034.501953125	20688.927734375	23078.984375	25246.658203125	19739.86328125	22033.404296875	22187.3828125	19221.658203125	22823.779296875	22749.078125	27287.48046875	25100.689453125	24574.171875	25092.021484375	21201.267578125	24533.38671875	22426.2578125	18987.16796875	25730.546875	22464.1875	24874.15234375	21300.306640625	23297.3984375	30298.40625	21685.46484375	24531.134765625	21068.712890625	19735.47265625	19946.7734375	23742.4296875	26318.16015625	23684.943359375	19899.330078125	23331.48828125	23222.826171875	21408.56640625	25360.736328125	24685.05859375	21805.791015625	24724.24609375	20033.85546875	18767.990234375	22767.84765625	21549.65625	24622.646484375	22222.939453125	24502.076171875	22065.8203125	21947.197265625	22370.4921875	21296.599609375	20631.64453125	24390.869140625	22613.224609375	24073.83984375	20695.619140625	22163.08984375	30323.080078125	19583.1328125	20568.201171875	18273.732421875
1800	2100	14585.3603515625	16830.16796875	13595.1328125	17294.70703125	14599.09375	17060.533203125	19531.2421875	15015.2109375	14021.587890625	17482.142578125	-897.703125	11664.814453125	17952.640625	14546.234375	14650.931640625	16262.9755859375	13279.7197265625	17649.91796875	14792.216796875	16792.3203125	19355.80859375	13156.8017578125	16441.291015625	11142.140625	18471.001953125	11601.0908203125	-126.74217987060547	6389.10888671875	11204.53515625	16836.80078125	75.83163452148438	8254.78125	20476.888671875	18458.15234375	19556.392578125	24597.44140625	20978.326171875	21324.841796875	21625.5546875	20941.880859375	20521.990234375	21271.50390625	22725.796875	18504.2578125	21605.212890625	20119.416015625	16508.55859375	20415.162109375	21582.388671875	25028.658203125	22814.11328125	24042.6796875	23307.24609375	19851.55078125	21460.7265625	19602.333984375	16737.126953125	23625.234375	20466.646484375	22416.45703125	19693.947265625	21686.5390625	27961.376953125	19853.19140625	22759.751953125	19438.962890625	18938.736328125	17668.06640625	21346.005859375	24650.626953125	21134.615234375	18207.27734375	21415.001953125	21245.712890625	18474.6875	23004.427734375	21809.4609375	20403.802734375	22617.748046875	18441.26953125	15962.79296875	20199.75390625	20281.044921875	22960.884765625	20290.05078125	22004.087890625	19996.953125	19901.16796875	20367.111328125	19707.908203125	18694.529296875	22518.482421875	20603.162109375	21095.4296875	18783.30859375	19590.71484375	29498.302734375	17787.23046875	19191.900390625	17148.603515625
2100	2400	14467.587890625	15779.501953125	12216.572265625	15829.849609375	12911.3115234375	16168.8271484375	17464.17578125	14280.6689453125	12387.7509765625	17318.564453125	-977.1556396484375	9403.33984375	16080.279296875	13058.7744140625	14335.16015625	15108.4306640625	11962.927734375	16381.2275390625	13363.2685546875	15816.328125	16573.974609375	12321.9267578125	15045.9990234375	6438.99755859375	16757.623046875	5037.8388671875	-207.37208557128906	6394.7734375	10318.515625	16346.4375	551.52587890625	8297.787109375	17420.931640625	15615.1640625	19380.4140625	22379.625	19180.69140625	20411.248046875	19389.107421875	19234.064453125	19187.36328125	20083.712890625	19794.779296875	17525.548828125	18798.39453125	18273.220703125	15099.404296875	18076.0625	19225.443359375	20323.84375	21477.552734375	20903.7890625	20522.275390625	16746.767578125	19718.291015625	17455.921875	16466.865234375	21950.146484375	18544.3515625	20082.509765625	18086.20703125	19479.345703125	24742.396484375	17856.30859375	22515.974609375	16265.1279296875	17106.896484375	17794.0390625	19000.1875	21631.947265625	21140.96875	16366.6171875	18948.037109375	19244.833984375	16474.080078125	21731.8359375	19452.671875	19904.40234375	20721.203125	17044.966796875	14738.6171875	18571.943359375	18792.90234375	19059.078125	19087.76171875	20435.451171875	17649.01171875	17844.515625	18011.15234375	18679.96484375	18796.921875	21075.158203125	18886.416015625	18845.470703125	17714.41796875	18532.849609375	23986.953125	18312.990234375	17906.328125	15704.7998046875
2400	2700	14021.3251953125	15077.0224609375	11102.310546875	14272.0478515625	12382.9931640625	13357.4775390625	16182.1416015625	13124.9306640625	11283.29296875	15950.6884765625	-987.0064086914062	4204.1123046875	15055.4599609375	12241.189453125	14015.8798828125	15129.2333984375	10794.12109375	14060.6044921875	12282.869140625	14512.767578125	16723.220703125	11126.908203125	14270.0068359375	3196.041015625	15438.3525390625	9728.40234375	-251.8433837890625	6383.2744140625	10045.912109375	15244.5166015625	651.3280029296875	8272.130859375	16589.40234375	16329.0947265625	17619.876953125	19190.17578125	16218.568359375	18627.302734375	18773.890625	18274.765625	16854.041015625	19450.400390625	18937.802734375	16701.48828125	18663.853515625	17071.654296875	14128.7275390625	16216.7490234375	18525.861328125	17868.1484375	19965.09765625	21303.49609375	18779.9375	15335.2451171875	18233.78515625	17014.34765625	13962.2470703125	21183.779296875	17424.45703125	18671.169921875	17265.251953125	18337.6875	25609.158203125	16606.869140625	20971.193359375	15061.125	15455.5859375	13493.9423828125	18213.7578125	21962.75	17509.3671875	16377.283203125	18447.58203125	19352.638671875	16358.9384765625	20997.99609375	18045.61328125	18769.298828125	19019.99609375	15718.6904296875	13603.802734375	16831.6640625	17056.89453125	16981.904296875	19061.61328125	19492.625	17283.51171875	17125.7890625	16591.322265625	16632.736328125	15714.419921875	20159.451171875	17859.11328125	17711.0859375	16424.203125	16611.103515625	24236.509765625	18623.5625	18438.123046875	13936.99609375
