frame_start	frame_end	parasubiculum	HATA	fimbria	hippocampal_fissure	HP_tail	presubiculum-head	presubiculum-body	subiculum-head	subiculum-body	CA1-head	CA1-body	CA3-head	CA3-body	CA4-head	CA4-body	GC-ML-DG-head	GC-ML-DG-body	molecular_layer_HP-head	molecular_layer_HP-body	Lateral-nucleus	Basal-nucleus	Central-nucleus	Medial-nucleus	Cortical-nucleus	Accessory-Basal-nucleus	Corticoamygdaloid-transitio	Anterior-amygdaloid-area-AAA	Paralaminar-nucleus
0	30	403.73634	607.5283	222.68406	141.47487	287.39529	330.64388	237.48694	220.66544	95.74919	215.21967	66.72067	189.1027	168.09873	100.43421	115.25364	137.94299	123.27092	184.82978	127.95002	208.48788	449.53672	197.97742	199.28695	198.96998	321.01327	395.93561	823.86676	404.63954
30	60	5081.87112	4337.50838	7125.77196	5434.31286	4508.78865	5985.7923	6648.54667	4994.21194	5268.32097	4511.54568	3744.98421	6120.25479	5099.01465	5207.52049	5754.72278	5041.56666	5742.01615	4977.01517	5157.25034	3656.68432	5158.08717	3588.87602	3844.29583	3199.47486	4001.44157	4907.25939	7405.33246	5131.4822
60	90	14736.95051	10588.16792	13875.57789	13034.685	14288.63239	12802.64726	14272.72148	10962.33031	11630.08094	11739.93976	10091.05937	14524.71427	12632.98618	13212.13177	13379.5815	12992.2112	12931.01895	12408.83319	12344.95283	11146.36663	13301.27137	11979.48291	11456.87277	10837.42365	12833.58043	11978.32611	19402.88595	11408.95391
90	120	19487.1728	15593.7468	25832.00064	23502.51534	22078.10777	21510.50487	22623.52761	22753.02394	21243.88179	19698.14826	20957.29744	26645.88344	24058.36215	26440.68984	24031.55441	24110.54167	23712.89322	22967.22921	22505.38018	18869.29917	22328.76246	19715.11899	18546.58119	14605.59947	18941.30658	18769.14187	25244.13323	20037.1
120	150	22732.43104	21514.27014	32152.42724	26607.73702	27384.12321	25826.85132	28385.55993	23553.68726	28038.0488	23746.15574	24780.67159	27802.59215	29524.44679	26890.34283	31248.23259	25388.81571	30805.55877	25636.68638	29221.03042	27386.51265	28926.89453	26026.90328	26492.26395	24008.01576	25665.12264	24661.17796	30313.645	26339.1853
150	180	22648.98993	27141.16721	33098.47546	28734.0086	31535.27211	26624.7932	30709.46973	26355.91083	27724.87092	26541.92902	27080.98324	31453.65928	31125.51798	30366.01427	31836.13331	28538.39879	31602.44934	28434.24631	30246.56864	25541.30324	26667.79973	28358.60689	28139.33371	28084.05936	28065.74964	27032.30395	25925.23236	25146.80923
180	240	23058.30462	22187.1778	34629.51133	30805.83708	30523.1161	28725.51352	31083.17729	31166.49698	29567.2131	26527.72032	26011.95608	30496.91355	30804.37654	32023.50978	32799.19671	30004.02303	31956.30678	30158.01051	30157.22701	28214.8126	28166.46295	24823.86044	24801.8111	22225.34828	25735.90026	23826.86104	24267.61299	26931.66157
240	300	21882.57496	21999.02509	30664.00657	28481.25092	27118.56248	26864.71447	28498.08624	26924.41867	29558.61676	24739.03231	26270.91255	28498.02768	29730.71619	28831.04288	32092.34445	27179.74823	31345.92679	27486.66669	29796.41168	26208.11507	27682.26855	26139.76389	26294.43248	23614.64369	25149.29629	22978.89479	24290.72508	25866.60234
300	360	21394.06158	19992.85931	31173.8158	27552.31356	26664.93375	28162.50917	29023.47295	26541.97247	28209.67168	22684.1196	24735.9762	23830.20283	27541.96102	26931.23088	30032.79159	24887.51976	29824.14471	25320.69508	28211.84442	26064.77118	27706.82681	26015.24902	25149.19727	25184.50293	26822.24499	22982.21639	24942.1308	24920.1304
360	480	19692.52697	19592.37064	28402.86509	26379.29302	23935.3758	25621.71169	25702.47181	25758.31493	26206.44306	23709.57852	23394.85222	24672.88604	25075.65731	27646.7981	27002.69304	26178.25951	26818.33473	26109.93281	25986.39191	25060.54273	25786.48675	24395.61466	23974.85575	24633.66078	23797.84558	21581.25962	21564.66471	24491.68665
480	600	18646.79197	19835.0255	24747.45156	24531.79121	21965.68353	24266.97907	23318.11366	24883.42601	24879.4598	21792.07966	21584.0015	23694.49708	22144.84446	25781.62203	24547.15931	24330.32041	24126.66954	24471.84406	23391.26411	23776.32429	23644.37211	23350.35423	22801.13923	22556.27134	22721.69682	19011.2554	19607.17593	21782.41147
600	900	15853.97259	18871.95943	22073.0652	21268.18927	19241.79316	21339.46491	20540.53422	21753.31978	22139.66089	19390.5827	19134.06292	20251.75325	20430.05162	21886.39315	21791.99664	21119.87582	21692.2627	21189.71378	21104.87672	22798.2875	21309.42681	21154.77801	20718.71763	22282.33936	20821.17467	17613.74812	18306.46615	20288.21604
900	1200	15661.45559	15586.4926	19044.62266	18112.44842	16674.68791	18401.28681	16590.3366	18839.52234	18964.11911	17092.56121	17218.20741	17071.82863	17839.90568	18539.15819	18830.64467	18219.83208	18689.42905	18178.18637	18131.87168	19168.97533	17685.63499	18119.02552	18037.22405	18561.65723	17937.00427	15922.5787	16237.64012	16399.32771
1200	1500	13830.00753	15209.27907	17170.39489	16148.09787	15468.14851	15723.84535	15677.31179	17067.36901	16398.80828	15733.77978	16015.96285	15089.16384	16050.84878	15516.65059	15977.17393	15763.87476	16020.3825	16017.22321	16008.43808	17870.04416	15930.80911	17544.14695	17651.02316	17758.62779	16035.52382	14204.63866	13974.75814	15075.83101
1500	1800	12555.60529	13673.90538	15920.59316	14557.51705	13927.54263	14161.95717	14708.70311	14941.35039	15430.21401	13982.57173	14538.16903	13878.64173	14946.80164	14379.80471	14879.7119	14565.53576	14947.77025	14497.75459	14791.60942	16389.89913	13953.50215	14964.92651	15273.38225	16660.70124	14692.39139	13285.80937	12773.45514	12968.72991
1800	2100	10592.19308	12353.58774	15861.4954	14210.59154	13085.02117	13703.45315	13536.10336	14865.39513	15215.47002	12719.46119	14206.70142	14063.54528	14682.63469	13880.71547	15016.50154	13836.31849	14888.45963	13507.65292	14479.59103	15016.39221	12657.67854	13848.64799	14429.08998	15361.11265	13343.45272	12472.05682	11411.67454	11743.88131
2100	2400	10234.08009	10867.76572	14479.72177	12749.98255	12389.17594	13139.37382	13163.99164	13496.18956	13759.07341	11525.8447	13504.23146	12347.10134	13467.57905	12949.71464	13401.18816	12796.95259	13332.58326	12502.57844	13357.07234	14346.35615	13583.92159	14032.65148	14062.11998	13749.76887	13011.12436	10587.61165	10843.23896	11779.12863
2400	2700	9142.83524	12179.3401	13373.23313	11658.22023	11289.33548	11255.03814	12277.77664	11328.06868	12874.49487	11041.06054	12455.62123	12049.6239	12751.3727	11294.70858	12163.24713	11510.48408	12286.86676	11286.67943	12304.59731	13394.87364	11643.69661	13676.90554	13716.37068	13587.00691	12182.35045	10754.09272	11577.89208	10328.70865
2700	3000	9229.45523	10542.34886	13282.57914	11040.55921	11716.1291	10649.3146	11524.10728	11356.34453	12074.73246	9782.66946	11755.37425	11753.14464	12692.58071	10918.47712	11926.17121	10831.82257	11783.94431	10411.34106	11653.13269	13297.21304	10528.44069	12184.31556	11913.37584	11077.63623	9936.5178	8878.19556	10329.38568	8870.94437
3000	3300	7936.44966	10600.25155	11755.49499	9769.17133	10924.05975	9318.43441	10649.70514	9837.72897	11935.49848	9374.07286	11311.13459	10527.71306	12493.95119	9246.80677	11648.70765	9292.75074	11686.81949	9306.87385	11526.80394	11392.37983	9724.5824	12454.29173	12506.65765	12705.64268	10697.58169	9912.70108	9723.27579	9227.4799
3300	3600	8188.5704	9727.03619	11476.80279	9535.06147	9914.04071	9000.55302	9023.64514	10240.7589	10659.87367	9392.42204	10892.67927	10139.47267	11094.49509	10223.13709	10529.32488	10104.48953	10393.05355	9814.28716	10236.15832	12117.44758	9741.81164	12252.25848	12323.69559	11100.83433	9887.7936	8720.86065	8937.87025	8388.92728
3600	3900	7545.34994	11737.68732	10686.60601	9171.4992	9571.90163	8902.66405	9407.91526	9997.55198	10322.93249	9589.22504	10763.81009	9687.2767	10658.01438	8701.94244	9963.13134	9219.56306	10096.47884	9169.20649	10187.48195	10644.89606	8274.16756	10048.35012	11036.8125	10066.52637	9105.18914	9000.56623	8707.7111	7710.41602
3900	4200	7652.89832	9076.18565	10798.87481	8856.20749	8788.11443	8594.7389	9153.88856	9567.64007	11255.16485	8136.80424	11409.12885	7876.8597	11368.02432	8299.56163	10583.42085	8077.09405	10666.06939	8360.29439	10763.92397	10529.79547	9535.14612	11309.83447	10813.28306	11349.70462	10157.16715	8788.26295	7906.89498	8522.1726
4200	4500	6498.12047	8000.53216	8910.04047	8448.06968	7165.65609	8513.72573	8777.04847	9836.64981	9415.20945	7955.8914	9494.01027	9004.97693	9861.61308	7883.60168	8933.46086	8000.14346	9003.61101	8292.79993	9142.5231	8997.65656	7784.61606	11518.99788	12192.81264	10344.46795	9393.14469	7898.83404	7321.41969	7307.5394
4500	4800	6724.31119	7199.26447	8953.47828	9026.61828	8244.23346	7975.43105	8496.0779	8231.79981	10155.88862	7747.72105	10828.09593	7541.9152	10662.78539	8616.55523	10225.93827	8551.63796	10045.62509	7976.55604	10120.66508	9096.47251	8096.47141	8836.38044	9362.36412	9008.45049	8007.1976	7652.25176	5721.8436	7667.02974
4800	5100	8101.76665	6423.95556	7464.26302	7972.10484	7010.00769	8507.4415	7249.11973	8994.10257	8143.63935	7749.74324	8950.56369	9017.77674	8120.14461	9604.77269	6930.34064	9474.53348	7205.29439	8824.16246	7757.10453	7616.19014	7087.23324	8430.07369	9019.47384	9139.65574	7414.02586	7427.75326	9407.59456	7751.81971
5100	5400	5462.82	8141.34173	7234.65368	8285.35514	8355.93061	7673.97646	6249.33347	9127.74028	8984.03043	7632.60303	9929.57197	8320.9085	8873.70311	7928.69899	7738.15224	8391.49369	7883.14014	8383.80377	8482.77453	8309.02671	5411.98158	8122.03174	8031.52323	9167.46613	7232.38807	7074.25504	6970.22806	5274.02786
