frame_start	frame_end	Left-Cerebral-White-Matter	Left-Cerebellum-White-Matter	Left-Cerebellum-Cortex	Left-Thalamus	Left-Caudate	Left-Putamen	Left-Pallidum	Brain-Stem	Left-Hippocampus	Left-Amygdala	CSF	Left-Accumbens-area	Left-VentralDC	Left-choroid-plexus	Right-Cerebral-White-Matter	Right-Cerebellum-White-Matter	Right-Cerebellum-Cortex	Right-Thalamus	Right-Caudate	Right-Putamen	Right-Pallidum	Right-Hippocampus	Right-Amygdala	Right-Accumbens-area	Right-VentralDC	Right-choroid-plexus	AirCavity	Skull	Vermis	Pons	CSF-ExtraCerebral	Head-ExtraCerebral	ctx-lh-bankssts	ctx-lh-caudalanteriorcingulate	ctx-lh-caudalmiddlefrontal	ctx-lh-cuneus	ctx-lh-entorhinal	ctx-lh-fusiform	ctx-lh-inferiorparietal	ctx-lh-inferiortemporal	ctx-lh-isthmuscingulate	ctx-lh-lateraloccipital	ctx-lh-lateralorbitofrontal	ctx-lh-lingual	ctx-lh-medialorbitofrontal	ctx-lh-middletemporal	ctx-lh-parahippocampal	ctx-lh-paracentral	ctx-lh-parsopercularis	ctx-lh-parsorbitalis	ctx-lh-parstriangularis	ctx-lh-pericalcarine	ctx-lh-postcentral	ctx-lh-posteriorcingulate	ctx-lh-precentral	ctx-lh-precuneus	ctx-lh-rostralanteriorcingulate	ctx-lh-rostralmiddlefrontal	ctx-lh-superiorfrontal	ctx-lh-superiorparietal	ctx-lh-superiortemporal	ctx-lh-supramarginal	ctx-lh-frontalpole	ctx-lh-temporalpole	ctx-lh-transversetemporal	ctx-lh-insula	ctx-rh-bankssts	ctx-rh-caudalanteriorcingulate	ctx-rh-caudalmiddlefrontal	ctx-rh-cuneus	ctx-rh-entorhinal	ctx-rh-fusiform	ctx-rh-inferiorparietal	ctx-rh-inferiortemporal	ctx-rh-isthmuscingulate	ctx-rh-lateraloccipital	ctx-rh-lateralorbitofrontal	ctx-rh-lingual	ctx-rh-medialorbitofrontal	ctx-rh-middletemporal	ctx-rh-parahippocampal	ctx-rh-paracentral	ctx-rh-parsopercularis	ctx-rh-parsorbitalis	ctx-rh-parstriangularis	ctx-rh-pericalcarine	ctx-rh-postcentral	ctx-rh-posteriorcingulate	ctx-rh-precentral	ctx-rh-precuneus	ctx-rh-rostralanteriorcingulate	ctx-rh-rostralmiddlefrontal	ctx-rh-superiorfrontal	ctx-rh-superiorparietal	ctx-rh-superiortemporal	ctx-rh-supramarginal	ctx-rh-frontalpole	ctx-rh-temporalpole	ctx-rh-transversetemporal	ctx-rh-insula
0	30	157.96142578125	134.62423706054688	172.69970703125	164.5122833251953	158.14974975585938	216.57713317871094	200.60244750976562	188.75941467285156	212.312744140625	349.2385559082031	168.20089721679688	112.7949447631836	197.799560546875	157.04408264160156	153.2128448486328	150.82241821289062	181.2412567138672	191.21035766601562	112.62171173095703	174.15367126464844	116.15191650390625	328.6305236816406	268.2381286621094	415.23968505859375	214.39418029785156	271.3420715332031	63.56498718261719	98.97708129882812	123.6836166381836	150.04147338867188	178.1298828125	74.45771789550781	224.9658660888672	265.40283203125	202.54800415039062	207.385009765625	316.5683288574219	192.50677490234375	200.0704803466797	136.1864471435547	171.4457550048828	141.41925048828125	255.78536987304688	200.96580505371094	294.2729797363281	171.2412109375	229.81402587890625	158.06503295898438	248.7722625732422	202.25167846679688	202.51724243164062	150.46461486816406	196.9477081298828	244.25173950195312	212.6664276123047	202.69534301757812	325.4778137207031	206.7349090576172	183.31932067871094	158.54762268066406	211.26625061035156	178.46107482910156	162.1250457763672	298.05670166015625	324.024658203125	324.6181335449219	209.84698486328125	346.3527526855469	152.88294982910156	227.94784545898438	174.09877014160156	178.05564880371094	156.90841674804688	186.81349182128906	243.00852966308594	124.07469177246094	234.90377807617188	221.44277954101562	183.78662109375	157.30455017089844	280.84033203125	260.60772705078125	227.88479614257812	127.70503234863281	199.89743041992188	265.6289367675781	191.67881774902344	153.10308837890625	159.65518188476562	201.86163330078125	210.8294677734375	171.49139404296875	205.04165649414062	113.70836639404297	231.60411071777344	207.29290771484375	155.80282592773438	208.7587127685547	503.90411376953125	359.7210693359375
30	60	3961.824951171875	4520.6806640625	5592.033203125	5563.064453125	4648.1572265625	5968.6923828125	4753.50537109375	4315.48388671875	4994.80322265625	4272.69482421875	3122.627685546875	5477.63134765625	5124.861328125	4227.86376953125	3855.274658203125	4355.03466796875	5641.5146484375	5871.9560546875	4463.72705078125	5651.52392578125	4708.119140625	4867.97265625	4162.92431640625	5582.3671875	5022.40283203125	3580.46630859375	968.143798828125	1536.3453369140625	5393.0537109375	4942.5986328125	4525.11083984375	1268.3221435546875	5490.44482421875	5836.9384765625	5703.88818359375	7078.9736328125	5037.0166015625	5018.490234375	5181.52880859375	5125.90087890625	6562.380859375	5186.4052734375	5707.09326171875	6227.07080078125	6117.6640625	5238.50146484375	5523.1962890625	5840.669921875	6228.90283203125	6507.9375	6198.99951171875	7459.931640625	5500.990234375	6227.794921875	5856.978515625	6312.5263671875	5900.81494140625	6003.6357421875	5836.796875	5202.66357421875	5406.6455078125	5784.49462890625	6298.78857421875	3884.439697265625	7444.2734375	6208.54052734375	5798.4912109375	6247.6005859375	6168.001953125	6262.138671875	4281.18115234375	4877.4404296875	5045.73828125	5034.03857421875	6296.39794921875	5039.3662109375	5850.27294921875	6025.22119140625	5973.03955078125	5106.5078125	4995.48583984375	5829.13232421875	6548.30419921875	5698.79736328125	6031.7822265625	6352.11181640625	5081.21484375	5880.19189453125	5402.74365234375	6021.47314453125	6857.46044921875	5893.150390625	5707.91552734375	4937.0419921875	5528.18896484375	5508.38671875	6391.55322265625	4063.9296875	8455.6689453125	6412.72314453125
60	90	11419.2724609375	13054.8330078125	16092.6474609375	16952.91796875	14280.4736328125	16824.21875	12609.583984375	11399.865234375	12559.3828125	12360.44921875	8911.748046875	15550.689453125	13688.962890625	12108.2958984375	11261.6650390625	12071.8828125	15887.9169921875	16229.16796875	13513.0673828125	16469.494140625	13406.41796875	11650.001953125	11694.7763671875	16634.349609375	12846.962890625	10873.9599609375	2342.540771484375	3980.521484375	15724.7216796875	13378.0068359375	11739.9150390625	3414.96142578125	14466.14453125	15202.37109375	17015.9296875	19445.748046875	12787.974609375	14787.248046875	15013.8017578125	14348.0849609375	17794.125	15053.94140625	16207.638671875	17418.83203125	16163.189453125	14519.5849609375	13946.4443359375	15517.5810546875	16902.484375	16771.029296875	16656.70703125	20936.537109375	15767.4638671875	18078.232421875	16685.392578125	17798.765625	15242.876953125	17525.244140625	16206.654296875	14796.7001953125	14224.4169921875	16088.0048828125	16761.677734375	12454.62109375	19565.125	15292.119140625	14993.083984375	16948.986328125	16926.15625	18092.095703125	13061.705078125	13227.00390625	14609.3955078125	14185.564453125	17173.25390625	14843.0556640625	16648.732421875	16513.25	15728.8388671875	14136.302734375	12385.787109375	15482.91015625	17816.00390625	16461.109375	15985.2939453125	17989.064453125	14390.828125	18151.064453125	16029.7490234375	16863.326171875	17463.43359375	17181.228515625	16015.1015625	13601.779296875	14357.6357421875	15212.7431640625	16640.74609375	11551.02734375	19129.966796875	16157.5302734375
90	120	19172.822265625	21763.1171875	27485.748046875	27701.51953125	24047.271484375	29179.625	20853.513671875	19761.234375	21809.0	19894.380859375	14836.3994140625	27103.361328125	22846.447265625	17879.912109375	19185.86328125	21669.275390625	27591.392578125	27856.845703125	24124.935546875	28688.783203125	23505.451171875	20534.98828125	20597.611328125	24665.212890625	20565.619140625	16577.669921875	3903.384521484375	6739.982421875	26764.396484375	21742.9921875	19092.18359375	5717.93505859375	25510.734375	26387.1015625	27932.650390625	32503.42578125	21468.275390625	24759.478515625	24778.078125	24669.04296875	28837.8203125	25580.546875	27921.521484375	28706.07421875	27181.33203125	24401.234375	23115.818359375	25966.466796875	28771.658203125	29375.54296875	28880.296875	34367.37890625	26524.23046875	29019.333984375	27330.98828125	30406.033203125	26383.119140625	29545.703125	27116.08203125	24159.806640625	24250.771484375	26682.701171875	28685.056640625	18344.703125	32922.37890625	26541.26171875	26481.02734375	27225.517578125	29530.443359375	30138.4765625	22387.849609375	23455.537109375	24685.19140625	25115.46484375	29258.49609375	25476.8046875	27762.416015625	26597.94921875	26637.7890625	24538.3203125	21138.595703125	25221.068359375	29944.3828125	28578.521484375	27512.1328125	31033.109375	24424.6484375	29937.318359375	26503.97265625	28562.923828125	27881.72265625	29181.1875	27177.546875	23967.74609375	24267.37890625	25981.75	30775.166015625	19036.533203125	33024.12109375	25731.365234375
120	150	24948.447265625	28495.29296875	36161.1640625	35577.015625	30902.76171875	38435.37109375	27472.2265625	24978.58984375	26098.494140625	26533.244140625	18973.283203125	32315.697265625	28804.01953125	24192.087890625	24830.337890625	27498.423828125	35880.3515625	35723.109375	32565.744140625	37864.1953125	30181.517578125	24935.328125	26183.529296875	34038.64453125	27064.173828125	22210.5546875	4798.27001953125	8317.15234375	35124.00390625	29050.96875	23623.1484375	7185.30126953125	33606.35546875	34446.40625	36636.3984375	41823.9765625	26384.890625	31820.017578125	33169.11328125	31917.875	35392.921875	32708.62109375	34261.8828125	35524.75	33569.046875	32344.0	30556.76171875	33895.1171875	37030.74609375	37818.890625	36824.6171875	45088.9609375	34283.18359375	39709.51953125	35532.390625	38485.2890625	32947.515625	38496.9609375	35317.09765625	31159.06640625	31121.044921875	35081.3828125	36692.40625	23463.662109375	39285.59765625	33144.44140625	35243.41015625	35646.5703125	36841.21875	38422.9375	27712.34375	30359.240234375	32522.208984375	31928.251953125	37555.90625	32644.775390625	35025.328125	34482.375	33619.4296875	31882.666015625	28395.86328125	34252.09765625	37148.6796875	36717.70703125	34344.80859375	39745.375	30450.69140625	39229.3671875	34435.0859375	36571.94921875	35546.03515625	37852.078125	34559.6796875	31064.6328125	29931.55859375	33593.0859375	36886.7890625	24274.3984375	41980.5703125	31863.123046875
150	180	26386.0234375	30095.294921875	38106.125	37633.93359375	32811.640625	40636.60546875	29662.33984375	25790.701171875	28241.482421875	25990.69921875	20207.8828125	34619.0625	30845.18359375	24716.330078125	26403.37109375	29135.9609375	37166.0	38057.859375	33233.5546875	40269.60546875	33054.015625	26973.263671875	24638.51171875	38202.52734375	29083.939453125	23756.056640625	4834.8837890625	8513.482421875	36800.3984375	29680.7109375	24035.14453125	7623.21923828125	33688.43359375	36046.0859375	38486.26171875	42708.95703125	26560.677734375	34390.55078125	35047.90234375	33765.0703125	37344.39453125	34094.015625	35711.390625	38008.30078125	35592.1875	34641.2734375	30784.798828125	36966.89453125	37813.51171875	39610.72265625	38794.640625	45465.62109375	35985.86328125	41007.93359375	36696.00390625	40286.30859375	34105.35546875	40381.22265625	36835.265625	33515.83203125	32794.03125	36591.73828125	37715.21484375	25054.66015625	41426.2890625	33356.12109375	38036.84375	38233.9765625	39317.20703125	38600.77734375	26439.845703125	31892.74609375	34855.8046875	33634.375	36540.50390625	35193.94140625	36634.40234375	35435.61328125	36210.25390625	33718.33203125	26901.099609375	35559.46875	40055.203125	39066.53515625	36968.3671875	41697.00390625	32821.03125	41044.9296875	36579.33203125	38891.5390625	35177.828125	39707.3046875	36436.48046875	32820.86328125	31371.75390625	35829.78125	39408.671875	23596.119140625	43526.0078125	33972.1328125
180	240	26909.265625	30619.970703125	38428.5234375	39370.67578125	33278.30859375	40705.3671875	30886.9765625	25941.345703125	28477.5703125	26504.537109375	19900.388671875	37230.0546875	30641.857421875	22968.7421875	27017.283203125	29229.294921875	37465.42578125	38043.93359375	33878.28125	41537.12109375	33162.62890625	26517.171875	26249.03515625	38058.9375	29248.501953125	22014.314453125	4775.82080078125	8801.4521484375	37198.5703125	30312.732421875	23584.791015625	7814.7080078125	34730.6640625	35712.88671875	38710.0234375	42896.77734375	25465.5625	34489.390625	35500.78515625	33888.58984375	36803.12109375	34475.125	36313.75	37274.34375	36733.23046875	34008.9453125	31891.853515625	35565.06640625	38844.0703125	38571.7734375	39374.41796875	44602.38671875	36496.6796875	39972.671875	37402.484375	41012.3203125	35056.29296875	39703.2578125	36497.921875	33843.859375	33066.109375	37472.234375	37492.8828125	25239.44921875	41271.3671875	33632.59375	37412.78125	36299.12109375	38850.72265625	38416.2421875	27820.818359375	32790.38671875	34592.40234375	34099.1015625	36303.99609375	34740.296875	37305.8515625	35939.07421875	36295.9609375	33592.65625	28229.15625	35875.90234375	40174.421875	38785.234375	36412.08203125	41280.75	32694.583984375	41483.82421875	36165.7421875	38389.52734375	36723.10546875	39943.97265625	36267.90234375	32808.96484375	31717.78515625	35531.66796875	39521.00390625	24487.275390625	43588.44140625	34230.07421875
240	300	26048.671875	29901.03515625	37101.3203125	37937.28515625	31764.77734375	40886.01171875	30321.392578125	25262.46875	26709.51171875	25367.0390625	18866.298828125	36446.58984375	29330.51953125	20707.40234375	25985.78125	28899.072265625	36132.2421875	37452.80859375	33622.56640625	40514.66796875	33252.74609375	25620.07421875	26221.650390625	35712.94140625	28204.673828125	20365.369140625	4564.5478515625	8708.1259765625	35354.21484375	29139.1015625	22234.16015625	7918.4951171875	35333.04296875	34436.96875	36427.2734375	39462.5390625	24536.974609375	33182.84765625	33409.53515625	33240.9921875	33696.46484375	32541.587890625	35008.0078125	35211.01953125	34782.3984375	33415.8359375	30296.76171875	35436.07421875	36533.8828125	37356.171875	37121.63671875	40950.58203125	34479.40234375	39296.765625	35526.86328125	37823.48046875	31978.134765625	37940.41796875	35228.23046875	32668.13671875	31751.033203125	35537.3046875	35055.98828125	24708.62890625	38953.2421875	32817.48828125	34819.2109375	35328.203125	36375.62109375	35848.34765625	27222.427734375	31902.892578125	33181.5078125	33183.98046875	35239.49609375	32947.84765625	36382.47265625	33597.1640625	34499.1171875	32309.431640625	28464.24609375	33079.61328125	37495.296875	36407.26171875	34709.94921875	38098.3828125	30909.736328125	38388.6171875	34265.65625	36148.8671875	35785.76953125	37550.890625	34575.80078125	31677.080078125	30576.869140625	33868.19140625	38356.796875	23533.294921875	38014.54296875	32377.67578125
300	360	25135.451171875	28448.46484375	34690.578125	36128.51953125	31307.99609375	39679.265625	30619.5703125	23840.41015625	25146.392578125	25902.619140625	17954.107421875	34759.640625	28611.568359375	19687.443359375	25156.958984375	26975.056640625	34095.15625	34752.875	31088.533203125	37812.53515625	32765.982421875	24627.73046875	25322.58984375	33788.19140625	27252.98828125	19251.30859375	4357.779296875	8431.3759765625	33055.86328125	26856.15625	20824.931640625	7823.0107421875	32131.5390625	33315.015625	34527.51953125	36787.73828125	24610.537109375	31451.75390625	31698.484375	31065.130859375	32399.234375	30890.06640625	32229.87109375	32912.015625	33493.046875	31579.263671875	28877.037109375	32000.689453125	34929.3125	35536.55078125	35277.85546875	38321.87890625	32526.16796875	36166.6328125	33740.734375	35915.5703125	30889.3671875	35951.64453125	32923.03515625	29963.365234375	30636.51953125	33315.96875	35308.51953125	23917.20703125	35699.75390625	31846.009765625	33146.73828125	33477.67578125	34280.2109375	32955.8203125	25254.041015625	30614.697265625	31225.734375	31327.14453125	32935.44140625	31164.353515625	34223.95703125	31991.15234375	33041.41015625	30824.654296875	26668.736328125	32825.84375	35592.03125	34690.5703125	32896.80078125	34869.08203125	29523.154296875	35443.55859375	32120.591796875	33985.2109375	34715.98828125	35514.13671875	32346.830078125	30112.666015625	29293.92578125	31722.37890625	35417.9375	23195.341796875	36164.92578125	31033.533203125
360	480	23511.529296875	26457.08203125	31372.337890625	33347.5234375	29223.36328125	35935.26171875	28435.673828125	22813.818359375	24300.267578125	23888.294921875	16422.82421875	31793.525390625	27022.81640625	15900.0302734375	23479.5703125	25979.400390625	30577.93359375	33262.6875	29074.501953125	35476.125	31554.140625	23154.32421875	24831.79296875	32555.9609375	25707.541015625	16800.75	4075.80322265625	7952.11328125	29958.671875	25852.935546875	18751.65625	7635.4013671875	29122.34375	29483.04296875	30704.1875	32104.87109375	22542.4765625	28954.52734375	28858.4453125	28350.373046875	28380.7109375	27309.0546875	29982.12109375	29066.380859375	30803.556640625	29276.87890625	27230.572265625	29731.2890625	31149.255859375	31662.71875	31678.662109375	32721.501953125	29221.802734375	32705.57421875	30246.408203125	31832.255859375	29061.328125	32437.076171875	30079.49609375	27587.765625	28092.279296875	29737.65234375	30010.169921875	21506.96484375	31858.724609375	29034.9609375	31522.46875	30310.552734375	30642.107421875	29476.8671875	23397.970703125	28220.70703125	28190.94921875	29273.90234375	28941.07421875	28114.1171875	31606.228515625	28670.01953125	30528.59765625	27604.775390625	24795.0546875	28937.71484375	31796.15234375	31533.4453125	29439.47265625	30943.845703125	26527.90625	33053.65234375	29123.619140625	30453.818359375	30882.2890625	31945.740234375	29254.416015625	26501.310546875	26979.01171875	28311.6328125	31948.673828125	21731.884765625	33375.0234375	28638.064453125
480	600	21574.26171875	24460.28515625	27489.28125	30134.2265625	25649.265625	32330.166015625	26988.658203125	20830.40234375	22440.48828125	22284.1875	15094.884765625	27518.775390625	24303.41796875	14504.85546875	21486.765625	23651.291015625	26747.306640625	29793.171875	25399.97265625	31516.7734375	28083.255859375	21020.888671875	23913.56640625	28477.078125	23866.6796875	14558.2451171875	3701.298583984375	7496.6162109375	26052.83984375	23833.060546875	16303.2841796875	7355.1298828125	26101.357421875	27615.037109375	27137.19921875	27555.009765625	20434.40234375	25882.884765625	25371.5234375	25692.10546875	26248.41796875	23940.16796875	26356.37109375	25368.107421875	27097.705078125	26110.115234375	24712.880859375	25660.51953125	27297.341796875	27065.634765625	27869.482421875	28199.095703125	25477.580078125	28532.609375	26224.4453125	27193.203125	25644.9140625	28426.158203125	26419.8203125	23980.025390625	25295.96484375	26397.87109375	26358.568359375	20144.017578125	28584.291015625	26357.755859375	27864.03125	27105.998046875	26798.541015625	25299.953125	22356.900390625	25298.1640625	24549.533203125	26099.51953125	24914.408203125	24372.7734375	27556.673828125	24955.46875	27013.095703125	24756.146484375	22032.376953125	25130.53125	27807.998046875	27057.09765625	25190.697265625	25924.171875	22834.48046875	28110.876953125	25430.763671875	26094.509765625	27146.666015625	27593.603515625	25613.904296875	23257.0	23886.943359375	24812.10546875	27985.890625	21476.560546875	28099.900390625	25874.7734375
600	900	19470.70703125	21700.794921875	22505.060546875	26159.951171875	21492.787109375	27683.103515625	24959.5859375	18876.53515625	19932.12890625	20858.96875	13593.9267578125	23744.9609375	22392.72265625	14217.4658203125	19356.263671875	21069.2734375	22039.73046875	26210.169921875	22052.310546875	26928.5390625	26266.994140625	19352.232421875	21569.2578125	24056.77734375	22043.38671875	13769.59375	3303.1015625	7086.5537109375	21191.611328125	21369.5859375	13699.802734375	7086.54443359375	22132.8046875	22281.408203125	22171.861328125	22404.0859375	18486.171875	22251.150390625	21329.40625	21998.5859375	21770.978515625	19957.419921875	22249.376953125	21055.6953125	23095.849609375	22470.029296875	21226.02734375	21626.744140625	22908.01171875	22249.025390625	23279.017578125	22869.654296875	21659.310546875	23576.796875	22368.28125	22632.306640625	22192.46484375	23890.787109375	22121.052734375	20121.935546875	21773.9453125	22103.857421875	22240.1875	17744.2265625	23948.853515625	22730.060546875	23121.423828125	22165.802734375	22267.138671875	20494.12890625	19603.646484375	22068.716796875	20650.921875	22453.568359375	20932.78515625	20342.28125	23355.943359375	20560.78515625	23343.966796875	20991.953125	19909.935546875	21172.6328125	23190.693359375	22325.07421875	21200.033203125	21061.03515625	19205.103515625	23615.68359375	20969.345703125	21655.78125	23166.923828125	22917.0390625	21561.3984375	19292.314453125	20714.734375	20668.34375	24070.783203125	19401.89453125	23341.5078125	22173.623046875
900	1200	17688.98828125	19098.48828125	18009.865234375	21680.111328125	17733.267578125	22362.92578125	21480.830078125	16743.765625	17163.693359375	17899.33203125	11926.84765625	19958.556640625	19495.615234375	11788.9130859375	17460.34375	18660.8203125	17535.591796875	21963.724609375	17306.12890625	22721.01171875	22965.765625	16688.46875	18607.607421875	19419.869140625	19159.990234375	12439.201171875	2992.72412109375	6804.55859375	16987.201171875	18809.18359375	11495.4443359375	7043.705078125	19063.435546875	19253.43359375	18461.822265625	18873.3046875	16406.662109375	18946.00390625	17955.837890625	18847.537109375	18036.578125	16830.025390625	19001.90625	17452.171875	19437.794921875	18916.431640625	17949.623046875	18398.650390625	19189.107421875	18822.7109375	19589.486328125	19423.3671875	17794.107421875	19822.861328125	18743.1953125	18863.59765625	19371.50390625	19856.47265625	18498.443359375	16896.94921875	18516.478515625	18560.67578125	18601.501953125	16123.939453125	19864.2890625	19689.568359375	19205.98046875	18563.255859375	18517.8515625	17156.634765625	17234.89453125	18743.658203125	17186.2890625	19012.130859375	17752.9375	17105.39453125	19920.45703125	16970.248046875	19705.80859375	17443.8359375	16830.890625	17878.16796875	19132.107421875	18428.623046875	17787.3515625	17626.95703125	16347.296875	19580.521484375	17748.044921875	18217.646484375	19942.98828125	19396.423828125	17837.873046875	16102.6689453125	17645.525390625	17500.08203125	19163.44921875	17280.8125	18954.1328125	19063.25390625
1200	1500	16777.470703125	17450.599609375	15448.5615234375	18944.24609375	15263.7177734375	19797.208984375	20329.396484375	15202.9462890625	15518.96875	16082.22265625	11001.1748046875	16485.521484375	18393.529296875	10989.7431640625	16567.8359375	17106.490234375	15055.8017578125	19052.666015625	15603.0419921875	19892.251953125	20533.1328125	15171.607421875	17014.314453125	17931.09765625	17790.115234375	12079.0439453125	2914.9736328125	6688.80322265625	14449.84765625	17421.69921875	10338.7109375	7118.13232421875	17268.359375	16635.169921875	16731.0234375	17285.982421875	14848.5830078125	17211.658203125	16140.4775390625	17261.119140625	16861.43359375	15195.443359375	17070.95703125	16156.326171875	17425.486328125	16900.2734375	16013.2578125	16348.9306640625	17581.6015625	17866.29296875	17861.14453125	17544.373046875	16412.97265625	17648.1796875	16892.859375	16932.619140625	16704.80859375	17919.916015625	16395.046875	15431.6787109375	16656.62109375	16799.140625	16616.654296875	14880.26953125	18000.65625	17841.609375	17234.896484375	16709.724609375	16674.576171875	15527.7626953125	15372.5634765625	16665.890625	15710.435546875	16981.08203125	16195.625	15630.3642578125	17452.357421875	15359.080078125	17819.37890625	15660.0185546875	16225.5390625	15879.7890625	17523.88671875	17169.984375	16293.3408203125	16427.302734375	14927.9951171875	17671.669921875	16100.466796875	16464.712890625	17448.1328125	17285.298828125	16083.4970703125	14591.5458984375	15986.7607421875	15716.9072265625	17805.931640625	15062.20703125	16861.958984375	17211.576171875
1500	1800	16023.759765625	16330.3427734375	13890.8583984375	16893.83203125	14166.4375	17868.333984375	19446.962890625	13732.5654296875	14111.2001953125	14649.51171875	10506.7958984375	15488.7392578125	17065.650390625	10604.6259765625	15888.5498046875	16060.380859375	13481.1044921875	17079.19140625	14153.267578125	17729.58984375	18883.123046875	13916.3310546875	14644.1396484375	15144.748046875	16275.91015625	11054.990234375	2804.16357421875	6649.1162109375	12743.2509765625	15920.853515625	9590.158203125	7200.203125	16501.390625	15671.8203125	15513.412109375	15786.0	13699.638671875	16218.431640625	15073.8876953125	15964.2431640625	15255.568359375	14296.1298828125	16156.63671875	14856.783203125	15607.990234375	15758.8427734375	15299.7763671875	15062.8427734375	16218.5126953125	17018.052734375	16637.39453125	16461.337890625	15020.4521484375	16454.98828125	15840.173828125	15844.4990234375	15407.21875	16636.62890625	15086.9794921875	14073.5126953125	15415.931640625	15673.1865234375	15405.1513671875	13996.2158203125	16667.572265625	16523.330078125	15982.9267578125	15904.3154296875	15464.505859375	14483.7626953125	14190.3974609375	15584.2138671875	14396.4248046875	15878.3837890625	15067.4677734375	14614.2255859375	16586.294921875	14253.94921875	16616.751953125	14434.013671875	14635.65625	14907.7060546875	15965.2939453125	15433.572265625	14803.16015625	15642.9697265625	13668.017578125	16507.892578125	14916.2568359375	15019.2685546875	16157.6064453125	16049.625	14920.447265625	13626.25390625	14781.91015625	14745.1982421875	16408.599609375	13929.5693359375	15388.7685546875	15510.2490234375
1800	2100	15416.28515625	15500.236328125	12529.068359375	15301.2587890625	13087.826171875	16335.0908203125	17122.44140625	12919.744140625	13430.20703125	13467.6904296875	9894.4853515625	14223.80078125	15229.8017578125	10451.611328125	15271.921875	15120.5478515625	12128.767578125	15432.3369140625	12820.7333984375	15959.98046875	17239.5546875	12849.3056640625	13343.751953125	14091.404296875	15245.4404296875	11160.2294921875	2820.727783203125	6614.39990234375	11697.9072265625	14965.3330078125	9076.111328125	7225.68115234375	15651.99609375	14702.4677734375	14321.78515625	15014.14453125	13223.32421875	15165.1865234375	14162.8466796875	15293.47265625	14886.3310546875	13625.4970703125	15009.220703125	14197.6025390625	15043.44140625	14801.87109375	13773.134765625	13956.2353515625	15428.9130859375	15785.205078125	15645.515625	16221.6220703125	14354.021484375	15630.5693359375	14594.5234375	14679.990234375	14451.478515625	15701.0908203125	14161.8193359375	13184.4794921875	14622.7607421875	14807.3447265625	14513.068359375	13178.591796875	15699.001953125	15544.9169921875	15319.7724609375	14720.5625	14436.619140625	13735.4287109375	13197.3251953125	14524.7919921875	13599.322265625	14915.21484375	14021.9580078125	13747.169921875	15203.6552734375	13570.890625	15680.4169921875	13629.201171875	13396.1044921875	14028.0791015625	15216.4794921875	14782.8037109375	14018.0458984375	14603.98046875	12833.9267578125	15427.876953125	14082.7802734375	14181.072265625	14951.32421875	15128.9697265625	13998.8232421875	12598.4453125	13833.5654296875	13657.453125	15854.9599609375	12830.392578125	14504.3291015625	14696.9326171875
2100	2400	14790.77734375	14473.12890625	11419.6669921875	14160.9970703125	12276.7568359375	15468.5791015625	16047.9423828125	12230.880859375	12373.150390625	13177.818359375	9426.01953125	12846.2001953125	13933.19921875	9659.29296875	14576.9541015625	13950.0478515625	11039.58203125	14404.791015625	12175.4794921875	15042.5498046875	15452.4130859375	12149.701171875	12664.6806640625	12541.17578125	14044.076171875	9777.5556640625	2751.113037109375	6587.2568359375	10567.2314453125	14464.7685546875	8734.9111328125	7256.369140625	14199.51953125	13571.9345703125	14043.6962890625	13994.6416015625	12647.7763671875	14543.3408203125	13225.0185546875	14433.6552734375	14007.9892578125	13178.9619140625	13680.880859375	13689.564453125	13733.0615234375	13809.1376953125	13041.759765625	12992.416015625	14344.3173828125	13945.12890625	14800.2724609375	15006.818359375	13295.134765625	14187.822265625	13849.1513671875	13733.078125	13869.12890625	14859.1884765625	13277.4873046875	12360.5068359375	13710.4111328125	13786.560546875	12963.8056640625	12107.3515625	14841.2685546875	14077.609375	14482.748046875	14233.673828125	13410.9638671875	12779.7568359375	13068.96484375	13602.767578125	12621.90625	13843.330078125	13232.8173828125	13213.4375	13970.169921875	13176.01171875	14656.615234375	12892.298828125	12603.2734375	13120.01953125	14292.2236328125	12996.794921875	13258.2353515625	13907.3837890625	11961.9873046875	14376.7412109375	13015.8203125	13511.8955078125	14659.912109375	14402.525390625	13246.0615234375	11722.8330078125	13232.111328125	13079.4765625	13596.8525390625	12667.04296875	13671.2021484375	13660.02734375
2400	2700	14182.197265625	13612.896484375	10514.2666015625	12904.8076171875	11780.775390625	13685.814453125	14591.900390625	11342.7587890625	11449.982421875	12160.8046875	8959.732421875	11335.078125	13051.7353515625	9274.625	14057.67578125	13584.8095703125	10167.6748046875	12776.341796875	11248.8544921875	14220.2333984375	15294.1435546875	11398.3427734375	11952.9990234375	10703.400390625	13119.6640625	10029.1669921875	2714.5234375	6532.92431640625	10071.2490234375	13544.3095703125	8377.669921875	7251.81494140625	13623.19140625	13191.90234375	13153.61328125	13118.2939453125	11134.5751953125	13660.4716796875	12826.490234375	13713.220703125	13101.1455078125	12824.232421875	13134.158203125	13040.8623046875	13397.0498046875	13182.3642578125	12220.234375	12257.7265625	13798.390625	12945.2666015625	14049.7724609375	14691.7275390625	12483.103515625	13533.1435546875	13059.65625	13199.3056640625	12425.5224609375	14448.2392578125	12639.73046875	11753.5830078125	13136.083984375	13170.43359375	13308.181640625	11452.7421875	14204.455078125	13261.43359375	13521.38671875	12705.1796875	12967.951171875	12394.4521484375	11727.2607421875	13262.96484375	12314.6142578125	13768.38671875	12770.74609375	12819.044921875	13244.1298828125	12701.3876953125	13686.63671875	12250.6865234375	12120.8173828125	12278.4345703125	13474.3447265625	12185.8310546875	13080.6484375	13545.486328125	11669.7626953125	13677.5224609375	12278.7734375	12648.193359375	13247.4892578125	13851.115234375	12584.8017578125	11240.24609375	12512.484375	12214.2568359375	13427.7939453125	12537.7978515625	13512.9921875	12858.720703125
