frame_start	frame_end	Left-Cerebral-White-Matter	Left-Cerebellum-White-Matter	Left-Cerebellum-Cortex	Left-Thalamus	Left-Caudate	Left-Putamen	Left-Pallidum	Brain-Stem	Left-Hippocampus	Left-Amygdala	CSF	Left-Accumbens-area	Left-VentralDC	Left-choroid-plexus	Right-Cerebral-White-Matter	Right-Cerebellum-White-Matter	Right-Cerebellum-Cortex	Right-Thalamus	Right-Caudate	Right-Putamen	Right-Pallidum	Right-Hippocampus	Right-Amygdala	Right-Accumbens-area	Right-VentralDC	Right-choroid-plexus	AirCavity	Skull	Vermis	Pons	CSF-ExtraCerebral	Head-ExtraCerebral	ctx-lh-bankssts	ctx-lh-caudalanteriorcingulate	ctx-lh-caudalmiddlefrontal	ctx-lh-cuneus	ctx-lh-entorhinal	ctx-lh-fusiform	ctx-lh-inferiorparietal	ctx-lh-inferiortemporal	ctx-lh-isthmuscingulate	ctx-lh-lateraloccipital	ctx-lh-lateralorbitofrontal	ctx-lh-lingual	ctx-lh-medialorbitofrontal	ctx-lh-middletemporal	ctx-lh-parahippocampal	ctx-lh-paracentral	ctx-lh-parsopercularis	ctx-lh-parsorbitalis	ctx-lh-parstriangularis	ctx-lh-pericalcarine	ctx-lh-postcentral	ctx-lh-posteriorcingulate	ctx-lh-precentral	ctx-lh-precuneus	ctx-lh-rostralanteriorcingulate	ctx-lh-rostralmiddlefrontal	ctx-lh-superiorfrontal	ctx-lh-superiorparietal	ctx-lh-superiortemporal	ctx-lh-supramarginal	ctx-lh-frontalpole	ctx-lh-temporalpole	ctx-lh-transversetemporal	ctx-lh-insula	ctx-rh-bankssts	ctx-rh-caudalanteriorcingulate	ctx-rh-caudalmiddlefrontal	ctx-rh-cuneus	ctx-rh-entorhinal	ctx-rh-fusiform	ctx-rh-inferiorparietal	ctx-rh-inferiortemporal	ctx-rh-isthmuscingulate	ctx-rh-lateraloccipital	ctx-rh-lateralorbitofrontal	ctx-rh-lingual	ctx-rh-medialorbitofrontal	ctx-rh-middletemporal	ctx-rh-parahippocampal	ctx-rh-paracentral	ctx-rh-parsopercularis	ctx-rh-parsorbitalis	ctx-rh-parstriangularis	ctx-rh-pericalcarine	ctx-rh-postcentral	ctx-rh-posteriorcingulate	ctx-rh-precentral	ctx-rh-precuneus	ctx-rh-rostralanteriorcingulate	ctx-rh-rostralmiddlefrontal	ctx-rh-superiorfrontal	ctx-rh-superiorparietal	ctx-rh-superiortemporal	ctx-rh-supramarginal	ctx-rh-frontalpole	ctx-rh-temporalpole	ctx-rh-transversetemporal	ctx-rh-insula
0	30	6.402190208435059	3.229797840118408	0.9416938424110413	3.245293617248535	0.8768342733383179	29.20565414428711	-20.700008392333984	6.432451248168945	-3.3703014850616455	-6.415229320526123	5.768246173858643	-30.013418197631836	-3.0024468898773193	-30.658849716186523	8.21012020111084	17.025602340698242	8.254538536071777	-0.8380594253540039	41.25350570678711	15.111360549926758	-15.735746383666992	16.331008911132812	-1.7510781288146973	58.770729064941406	3.6453628540039062	8.626527786254883	4.750188827514648	3.1052396297454834	-9.291646957397461	7.794918060302734	10.41724967956543	4.843128204345703	44.42837905883789	-3.7749409675598145	9.52196979522705	7.484657287597656	-12.701504707336426	18.404699325561523	1.0158238410949707	0.05279001221060753	17.60694694519043	-2.748258590698242	9.961067199707031	22.685882568359375	5.719412803649902	-1.176518440246582	-16.05181121826172	-2.9937877655029297	1.9909801483154297	14.36211109161377	-9.388510704040527	-27.69695472717285	13.124385833740234	-5.982249736785889	-2.8207130432128906	-0.9087672829627991	7.309291839599609	2.4244534969329834	0.840706467628479	0.021410666406154633	0.09657660871744156	3.9903995990753174	32.6838264465332	-7.387295722961426	23.699811935424805	6.580438137054443	12.815693855285645	43.75392532348633	11.176506042480469	-13.888279914855957	58.19046401977539	7.979791641235352	-2.6551411151885986	12.602012634277344	28.170398712158203	8.929061889648438	9.043617248535156	-11.020438194274902	10.570441246032715	-5.482652187347412	-14.982369422912598	-7.236009120941162	3.1385507583618164	15.31860065460205	22.894794464111328	-15.21469497680664	3.625086545944214	-10.381089210510254	20.732669830322266	-6.982576370239258	-18.049816131591797	1.678977131843567	1.1177163124084473	-5.583508014678955	-3.2752296924591064	2.4260356426239014	-9.91702938079834	-14.004504203796387	148.26797485351562	3.24641489982605
30	60	295.1990966796875	357.7462463378906	925.4259643554688	1072.1522216796875	1577.3402099609375	1552.49365234375	593.790771484375	1045.6025390625	1034.8837890625	2018.0115966796875	218.8431396484375	4431.18212890625	1586.0341796875	1573.6358642578125	369.5050964355469	672.0486450195312	872.8438110351562	1406.67041015625	1243.9859619140625	1641.141845703125	474.42926025390625	646.4046630859375	1278.8145751953125	1327.61572265625	894.9210205078125	3947.341064453125	158.71202087402344	380.1091613769531	1034.146484375	544.032958984375	828.5722045898438	327.5904846191406	1379.691162109375	2302.595947265625	2516.925537109375	1960.5751953125	3025.9794921875	946.5285034179688	1305.884033203125	1418.10009765625	1424.6787109375	1137.854248046875	1931.7130126953125	1427.4259033203125	2373.818359375	1417.648681640625	1847.045166015625	1460.99658203125	2180.140625	2021.922119140625	1545.833740234375	3240.648193359375	1593.819091796875	2352.202880859375	1744.6376953125	1330.12451171875	1625.6539306640625	2194.3779296875	1881.9102783203125	1424.68310546875	2098.518310546875	1771.40380859375	2328.34716796875	2238.963134765625	3067.636962890625	3086.056884765625	1371.5155029296875	3053.51953125	1328.3946533203125	1617.7454833984375	2927.799072265625	1161.1492919921875	1432.0211181640625	951.848876953125	1937.29296875	1112.619140625	1952.5576171875	1051.9058837890625	1296.4237060546875	1056.0452880859375	1799.301025390625	1265.715576171875	2255.2431640625	1149.833740234375	1448.2666015625	1970.6241455078125	1224.250244140625	1271.5616455078125	1683.35595703125	1331.2684326171875	1273.091064453125	1537.8538818359375	1765.4183349609375	1317.2607421875	1945.5491943359375	1955.098388671875	1801.858642578125	1112.0865478515625	3502.507568359375	2001.073974609375
60	90	2028.2952880859375	4252.23681640625	8782.8037109375	10624.744140625	11517.0048828125	14336.5810546875	5936.3974609375	6539.83203125	10588.6328125	8006.826171875	1569.832763671875	10089.3388671875	6792.59228515625	12631.7421875	2208.689697265625	3642.763916015625	8559.271484375	10025.236328125	13099.5498046875	14146.9853515625	7007.34814453125	8811.39453125	9448.21875	16042.0703125	6730.72216796875	17909.71484375	916.1248168945312	2317.2822265625	10231.9814453125	7563.75341796875	3978.5810546875	2360.480712890625	11226.8408203125	17127.755859375	17111.66015625	16575.291015625	13508.404296875	9161.00390625	11934.322265625	12637.2978515625	13741.2138671875	11480.9794921875	14387.580078125	12911.2060546875	15561.75	12550.41015625	8393.955078125	12338.314453125	16535.19921875	15709.12890625	14965.5185546875	23788.814453125	12859.79296875	15394.7080078125	14443.4716796875	13803.916015625	12547.51171875	17078.103515625	14866.0791015625	13110.935546875	12982.7099609375	14191.8505859375	17468.119140625	9733.8349609375	19922.423828125	14886.6044921875	13661.7109375	15613.517578125	14018.671875	17971.70703125	15438.564453125	9176.455078125	12469.5556640625	11624.5390625	17092.783203125	13212.302734375	14816.4560546875	13046.181640625	13614.5224609375	11265.685546875	7811.296875	13497.3408203125	14494.154296875	14305.0	14691.365234375	17695.095703125	13435.4501953125	14466.388671875	14092.7080078125	12630.3642578125	12920.8564453125	15296.841796875	13721.697265625	13220.8486328125	11837.8798828125	13552.7236328125	17039.103515625	10906.29296875	25138.439453125	13071.517578125
90	120	4705.91015625	9477.8359375	19817.1484375	22480.77734375	27209.03515625	29270.505859375	13624.4521484375	12994.244140625	20034.13671875	15224.6953125	3174.705810546875	30496.759765625	14899.5703125	51088.8828125	5121.47607421875	8386.734375	19408.515625	22339.61328125	27481.1484375	31655.548828125	12068.87109375	18896.19140625	17949.462890625	24835.544921875	16297.8779296875	43857.5859375	1566.476806640625	4518.029296875	17701.34375	15233.357421875	6620.65185546875	4578.10693359375	28242.869140625	34981.13671875	33049.33984375	34963.91015625	30257.4375	19944.771484375	26951.392578125	27165.88671875	26834.212890625	28738.86328125	31903.431640625	30615.212890625	33500.47265625	27716.521484375	16757.189453125	28756.552734375	34933.90234375	31767.794921875	34032.0625	52235.62890625	29388.484375	31338.091796875	31649.91796875	32132.7109375	27654.037109375	37199.7421875	32391.78515625	30311.3984375	27593.4453125	31350.9140625	39193.07421875	17901.1640625	46247.703125	29491.15625	29022.361328125	32041.33984375	31983.20703125	37170.9140625	28915.228515625	19719.46875	29737.21484375	25613.90234375	33041.40234375	30625.77734375	32361.3125	27853.076171875	31427.6875	24563.412109375	14227.9111328125	27382.28125	33171.66796875	31809.94921875	36958.30859375	44247.2109375	28845.1328125	32831.171875	31279.044921875	27723.798828125	23312.1328125	33129.08203125	31095.837890625	30291.7890625	25499.609375	30446.43359375	38339.57421875	20492.044921875	57179.515625	26064.53515625
120	150	7292.2958984375	16649.845703125	32000.10546875	36780.625	43663.90625	49443.08984375	23185.8125	19466.662109375	32020.060546875	22692.2578125	5481.95068359375	41817.68359375	21906.5703125	53894.328125	7539.716796875	13575.9462890625	31535.486328125	36181.6171875	46421.39453125	48435.2890625	21112.001953125	30924.142578125	25041.53515625	37760.6015625	27759.935546875	64903.21484375	1960.1114501953125	6725.12841796875	35164.70703125	25171.28515625	8965.3359375	6962.0068359375	43682.12890625	53457.8203125	56479.68359375	61195.61328125	42608.82421875	35221.82421875	45717.3203125	43281.0859375	44900.94921875	47292.36328125	49191.22265625	46716.9296875	50340.98828125	44328.1328125	27184.98828125	46988.25390625	56317.92578125	50857.5859375	53962.85546875	87117.9140625	49370.734375	50563.97265625	51130.28125	52389.765625	44218.00390625	58266.90234375	52755.203125	48972.625	43948.70703125	48810.55859375	63139.734375	28301.560546875	70042.296875	42336.83203125	47701.578125	46154.60546875	52605.92578125	56961.71875	41146.234375	32719.1875	47865.69921875	40357.19921875	47926.66796875	49547.91796875	49063.71875	42329.015625	49067.15625	41170.328125	26216.22265625	46155.74609375	49085.28515625	50001.63671875	55139.1875	73851.34375	49451.13671875	49216.87890625	52061.9375	47663.4453125	39258.77734375	54252.203125	49980.36328125	49646.20703125	41595.87890625	49483.8125	61639.12890625	31084.5625	80637.359375	42275.0390625
150	180	8844.1572265625	18431.103515625	39747.30859375	44427.48828125	51493.21484375	62354.30859375	21317.21484375	24174.484375	37599.4453125	24797.109375	5434.1455078125	48827.71484375	26793.33984375	73011.1796875	9212.0390625	17037.12890625	38433.1796875	42967.421875	58361.66015625	56822.91796875	28273.287109375	37443.1015625	29059.92578125	38421.68359375	28221.34765625	81641.0859375	1899.71533203125	7638.40966796875	40606.8046875	28931.37109375	7964.72802734375	8290.4775390625	53845.90625	62223.796875	68866.21875	68273.46875	50245.04296875	42528.1796875	55097.28125	52108.37890625	53683.88671875	58001.890625	58469.609375	57352.28125	60907.9453125	52444.26171875	32279.28515625	54258.16796875	66054.6484375	60715.1640625	64981.24609375	114245.2421875	59184.375	61895.48828125	60605.0390625	65866.0625	52789.9296875	70554.40625	62804.58203125	60172.953125	52061.359375	60334.046875	75521.9609375	34852.640625	78174.1015625	48653.2109375	56816.38671875	56680.171875	64567.0625	73750.421875	45752.0234375	40875.55078125	59693.23828125	50135.796875	57000.22265625	60556.8515625	59299.57421875	52093.73046875	56885.69921875	50004.88671875	29005.451171875	58302.890625	59233.77734375	58855.953125	65277.1875	88933.734375	62088.55078125	59196.28125	62221.625	58146.9921875	46883.2578125	66871.453125	61286.86328125	61771.6953125	50015.8203125	58725.796875	67425.203125	36394.0234375	86627.34375	45254.19140625
180	240	9681.9140625	19818.765625	40095.71875	44091.41796875	55145.2421875	61635.453125	25726.361328125	24945.689453125	35440.27734375	26235.576171875	5582.89208984375	51390.296875	26690.5859375	62969.796875	9698.7177734375	17392.427734375	38779.31640625	43964.0859375	59255.57421875	58891.80078125	29649.66796875	35530.33203125	32455.876953125	44950.7109375	29840.51953125	74104.453125	1651.8096923828125	7761.65380859375	42047.640625	29480.775390625	6221.97216796875	8436.533203125	54749.3203125	58501.66796875	69343.453125	72982.421875	49582.31640625	43895.4609375	56071.6328125	52196.61328125	49289.484375	59614.078125	58475.20703125	58270.30078125	61041.65234375	54355.12890625	32970.69140625	56257.48046875	65574.375	62729.37109375	65740.390625	112875.3671875	62259.40234375	57819.46484375	61537.26953125	63805.1484375	54235.890625	71503.765625	63769.50390625	64028.1953125	51558.203125	60134.03515625	74895.3671875	34647.46875	79270.9609375	46682.3515625	57054.47265625	54628.24609375	66039.90625	72315.046875	40436.33984375	42684.0703125	60520.55078125	50848.8671875	58040.40234375	62169.3359375	58855.1484375	51739.4375	58974.35546875	51241.25	31707.03125	57502.76171875	59836.78125	59874.921875	65412.640625	89481.875	62603.40234375	58705.4765625	62982.23046875	60460.9296875	46016.98828125	67486.7421875	61863.6796875	65616.765625	49760.51953125	60191.27734375	72395.671875	36125.86328125	82949.984375	44883.6015625
240	300	10082.7626953125	19989.19140625	37508.28515625	42839.609375	53402.421875	60394.6640625	23719.0078125	24082.970703125	32954.83203125	29229.37109375	4006.90087890625	45208.08984375	27616.25390625	47273.5859375	9981.849609375	17074.998046875	37141.0859375	42754.7421875	57769.8203125	57513.28125	27480.162109375	32506.76953125	30556.40234375	38680.93359375	27792.765625	60637.98828125	1367.105712890625	7838.7802734375	40420.8984375	27429.1171875	5113.517578125	8483.978515625	50684.5703125	55962.0	63392.64453125	66490.5	43651.16015625	41592.96875	53687.4296875	49027.40234375	44931.609375	55647.30078125	55048.859375	55500.73828125	57918.25	51176.71484375	31369.341796875	54893.375	60473.40625	57017.7578125	61180.4609375	99253.2890625	59310.88671875	53513.984375	56905.39453125	59998.53515625	49606.015625	65710.9609375	59184.7265625	59267.25390625	48465.43359375	56940.0078125	70299.59375	35384.3125	69248.5078125	43012.32421875	53503.375	49481.46875	62722.109375	65348.0546875	40580.2734375	41291.0390625	56242.08203125	47276.7265625	56145.94921875	58544.51171875	55751.24609375	51105.0390625	54747.69140625	48710.6484375	29717.390625	53842.21484375	55161.0234375	56091.7109375	60161.5625	81705.5546875	58520.859375	51373.6328125	59090.79296875	56538.16796875	43943.0859375	63312.61328125	56710.984375	61941.55078125	46590.1171875	55746.171875	68696.21875	35806.41796875	69356.7578125	41190.6875
300	360	10275.041015625	19337.642578125	34802.9765625	40658.1484375	50077.92578125	54257.16015625	25229.447265625	22814.306640625	30183.890625	27947.650390625	3196.56787109375	43842.0234375	26604.490234375	39089.70703125	10168.4814453125	17731.232421875	34064.60546875	41322.0	52815.32421875	52236.8671875	27509.7734375	31203.70703125	29388.921875	38744.26171875	28244.75390625	50711.30859375	1206.8077392578125	7725.2021484375	37037.64453125	26275.369140625	4366.130859375	8559.5185546875	47914.5234375	49391.609375	57156.90625	63201.4921875	40268.7265625	38864.43359375	48552.20703125	46397.4375	40606.828125	50965.31640625	50255.3359375	49424.4609375	52196.9140625	48002.6015625	28500.951171875	50316.75	53715.96484375	51831.71484375	55752.7265625	85636.15625	53362.58984375	48440.7578125	51893.5390625	54438.6171875	45844.3203125	59621.953125	53307.25	54262.828125	44630.01171875	50781.66015625	65779.4765625	33250.796875	60697.26171875	43128.81640625	48871.8203125	47649.0	53578.6328125	59702.62890625	36350.70703125	38089.02734375	51537.0625	45666.5	48483.29296875	53503.99609375	50120.48046875	46919.15625	50910.2421875	44683.60546875	27151.267578125	49357.0625	50902.15234375	51881.6796875	54139.48828125	72170.171875	54099.56640625	51311.16015625	52790.421875	51272.66796875	37704.7734375	58036.5625	51704.16796875	56472.99609375	43698.46484375	50256.57421875	61335.421875	34091.64453125	61094.73046875	38350.875
360	480	10683.03125	18484.6796875	30888.14453125	36568.58984375	42625.25	47515.56640625	23146.642578125	21398.759765625	26543.05859375	26334.0703125	2237.989990234375	41487.52734375	25811.87109375	27298.57421875	10318.9462890625	17021.947265625	30397.669921875	37054.48828125	45847.55859375	45710.35546875	23966.0703125	27658.025390625	29222.720703125	35391.76953125	25712.82421875	25604.4375	886.551025390625	7945.67919921875	31185.029296875	23604.076171875	3341.79736328125	8406.529296875	41619.19921875	43785.9453125	49054.58984375	53203.26171875	42193.70703125	35415.00390625	42152.03515625	39914.48828125	37420.8359375	44094.91796875	43279.81640625	43010.7734375	44850.4765625	41831.3125	28433.4765625	41957.06640625	46096.7265625	45162.59375	46581.51171875	72412.359375	45364.1953125	42585.73828125	44883.79296875	45956.9140625	39868.8515625	50792.04296875	45654.3828125	47151.41796875	40052.796875	43866.4375	58605.875	33083.70703125	52625.7734375	36782.296875	41692.03125	42392.66015625	46045.94921875	49795.2890625	36764.8359375	34916.734375	45976.14453125	39429.04296875	41726.29296875	47100.94921875	43273.06640625	40360.7265625	43685.5703125	40281.9453125	25871.794921875	43245.46484375	42750.671875	45053.49609375	47210.37890625	60122.14453125	46172.015625	42780.3203125	46222.1171875	44971.71875	33944.1953125	49800.4375	45306.078125	48423.58203125	38969.5078125	42602.99609375	54049.52734375	31328.541015625	45682.41796875	35224.87890625
480	600	11087.04296875	18934.095703125	26285.6640625	32826.6796875	35272.77734375	39753.921875	20994.19921875	19100.302734375	23714.505859375	27165.6796875	1574.767333984375	36447.4921875	23186.373046875	19784.025390625	10792.6318359375	17345.171875	26036.7109375	32636.591796875	38724.1015625	38978.15625	24096.162109375	25028.67578125	26745.583984375	31406.287109375	23777.853515625	24860.275390625	885.8801879882812	8149.60546875	26663.74609375	22259.009765625	3099.8818359375	8378.15234375	35144.390625	34996.4453125	40330.5625	43382.2109375	36045.58984375	31659.330078125	34735.2109375	34383.796875	30175.998046875	37048.2578125	36270.8125	35680.98046875	38584.85546875	34871.9609375	23394.9296875	34005.7109375	37431.01171875	36440.296875	39027.87109375	56690.984375	37437.55859375	34599.16796875	37163.53515625	37642.20703125	33971.8515625	42119.140625	37478.7265625	39331.515625	33897.59765625	36166.7734375	48012.62890625	30660.369140625	40112.3515625	31159.26953125	32434.95703125	34504.66796875	36564.87109375	41334.109375	31922.6875	29989.373046875	38341.9765625	33881.01953125	34609.79296875	39618.3203125	35950.89453125	33474.99609375	36978.984375	34766.6640625	23842.490234375	34028.28125	34084.65625	37291.0	38356.53515625	47157.89453125	37917.98828125	34883.828125	37683.71875	37564.03515625	28945.623046875	41881.4609375	36894.828125	39904.05078125	33940.10546875	35452.265625	44288.55078125	31381.638671875	36162.33984375	30675.755859375
600	900	11437.2626953125	18183.09765625	20487.822265625	26865.076171875	27698.888671875	30791.34765625	21780.673828125	16473.33984375	19009.55859375	22437.427734375	753.982666015625	27217.9296875	21335.72265625	11223.0693359375	11102.9443359375	16804.91015625	20517.234375	27263.884765625	29304.5078125	29482.328125	21856.3984375	20171.830078125	24285.396484375	27326.298828125	21643.984375	15207.396484375	700.6602783203125	8151.58203125	20510.53125	19984.640625	2938.248779296875	8351.12890625	27430.70703125	26589.037109375	29712.8046875	32568.568359375	30674.158203125	25306.931640625	27067.69921875	27330.5390625	23841.54296875	27623.53125	28753.4375	27745.099609375	29742.33203125	27764.556640625	19887.541015625	24693.322265625	28387.947265625	27746.841796875	29353.13671875	40238.4140625	27827.626953125	26406.005859375	27776.33984375	28484.4296875	27037.7265625	31797.443359375	28691.482421875	30135.4609375	26675.900390625	27336.390625	39692.33984375	25721.998046875	30070.255859375	26449.361328125	26189.595703125	27337.654296875	28548.859375	31971.03515625	26869.173828125	24905.29296875	29646.54296875	27022.712890625	26367.068359375	31102.01171875	27948.78515625	26686.09375	28399.171875	27451.935546875	18754.0	25131.2578125	25343.037109375	28733.3984375	29511.76171875	34966.58984375	28602.52734375	27302.853515625	28606.109375	27999.134765625	22789.861328125	32178.294921875	28227.890625	30742.689453125	26775.205078125	27011.435546875	36231.359375	25412.1015625	25276.146484375	24697.03515625
900	1200	11956.7880859375	17421.10546875	15297.5966796875	20674.876953125	19789.93359375	22185.39453125	21236.623046875	13911.744140625	14943.1787109375	18340.248046875	556.0872802734375	19128.8828125	19059.646484375	5602.13623046875	11428.87890625	16477.658203125	15376.1640625	21242.33984375	19959.279296875	21594.76953125	21052.279296875	15848.4931640625	19669.478515625	18525.60546875	19337.009765625	9930.189453125	536.8604125976562	8548.8017578125	15303.9189453125	17553.140625	3070.046875	8480.337890625	21003.072265625	20220.294921875	22381.564453125	23827.22265625	23890.53515625	20269.13671875	20022.265625	21607.568359375	18479.134765625	20060.56640625	21845.423828125	21051.642578125	22307.7421875	20941.146484375	15925.5712890625	17013.984375	21041.701171875	21298.046875	21835.267578125	26596.1171875	19674.8515625	18813.701171875	20462.564453125	21446.87109375	20466.86328125	23528.794921875	20603.435546875	21955.08984375	20337.296875	20311.396484375	32269.552734375	22766.73046875	24025.171875	21448.15234375	18981.80859375	21271.09375	21094.884765625	23071.970703125	21012.474609375	19434.841796875	22545.7734375	21375.31640625	22622.017578125	23797.708984375	21891.2265625	20624.1796875	21365.669921875	21558.109375	15617.505859375	16814.16015625	20412.228515625	22072.568359375	22750.939453125	25586.119140625	20997.748046875	21447.787109375	21511.923828125	20289.732421875	17300.099609375	24496.994140625	21056.30078125	23401.447265625	20942.876953125	20258.755859375	26447.767578125	19852.08984375	20440.98046875	20000.57421875
1200	1500	12045.76953125	16937.060546875	12264.35546875	16943.75	14639.37109375	17819.583984375	19612.73828125	11784.5126953125	12540.7666015625	16031.5712890625	483.4075927734375	14124.779296875	16835.6484375	6622.51123046875	11468.7001953125	15691.4365234375	12572.7998046875	16919.47265625	16245.8974609375	17211.23828125	19183.013671875	12935.9443359375	16838.208984375	11941.8115234375	17182.595703125	7747.07421875	469.9603271484375	8676.248046875	11452.26953125	16415.40625	3283.53857421875	8531.8330078125	17762.646484375	17258.994140625	18035.6015625	21911.53515625	20518.513671875	17331.9765625	16830.53125	18752.8203125	16569.736328125	17380.54296875	18706.685546875	18832.296875	18790.46484375	17411.416015625	13201.9794921875	12545.67578125	17306.599609375	17949.736328125	18612.513671875	21392.3359375	16728.3125	16921.3203125	16442.9453125	17679.837890625	17195.703125	19905.966796875	17090.84765625	18673.30859375	17253.162109375	16977.791015625	28057.0625	19625.119140625	21082.09765625	18109.2734375	16100.892578125	18260.55078125	17702.6484375	19996.8671875	17377.931640625	17032.060546875	19524.876953125	18068.703125	17769.20703125	21052.89453125	18611.568359375	17850.677734375	18599.146484375	17812.365234375	12325.9794921875	13922.990234375	17307.970703125	19513.236328125	19409.25390625	20667.724609375	17648.7109375	17316.814453125	18006.966796875	17534.54296875	14949.6669921875	21077.798828125	17736.45703125	19883.021484375	17741.953125	17106.634765625	24035.99609375	17513.234375	18696.568359375	17452.0078125
1500	1800	11951.4248046875	16028.0966796875	10218.1630859375	14038.423828125	12732.9306640625	14669.984375	17400.498046875	10138.3310546875	10899.5400390625	13699.0	955.3236083984375	9279.134765625	15070.2685546875	-3677.152099609375	11339.3984375	15073.267578125	10567.1669921875	14693.806640625	12481.5703125	14214.1572265625	16514.521484375	11379.802734375	13723.1240234375	10191.404296875	15389.1298828125	4365.5302734375	379.7536926269531	8805.966796875	9081.69140625	14832.8544921875	3620.247802734375	8534.5517578125	16353.6689453125	14878.37109375	16298.3359375	18544.9765625	17274.7578125	15813.7705078125	14667.3759765625	16604.640625	15166.4775390625	15456.1640625	16486.55859375	17208.916015625	16555.25390625	15037.1904296875	11935.4482421875	11575.2236328125	15736.5078125	15221.4755859375	15765.9052734375	18234.578125	13974.0830078125	14234.17578125	14018.130859375	14859.52734375	14264.3994140625	17263.638671875	14645.9765625	16811.126953125	14787.076171875	14674.90234375	25282.318359375	17120.3203125	18578.09765625	16332.9345703125	13995.9404296875	14535.69921875	15636.3974609375	17628.267578125	15304.6298828125	15283.974609375	17013.486328125	16221.7314453125	16548.91796875	19261.251953125	16562.23828125	15844.888671875	15740.9892578125	16043.599609375	10736.552734375	10525.1435546875	15277.9541015625	17600.822265625	16669.041015625	17365.640625	15062.19140625	16420.275390625	15197.7001953125	15377.1396484375	14569.974609375	18712.05859375	15267.072265625	17185.25390625	15409.8994140625	14660.9580078125	19605.078125	15973.4619140625	16868.150390625	15136.3740234375
1800	2100	11659.3291015625	15065.9287109375	8935.6640625	12079.5546875	10666.7626953125	12565.298828125	15082.9833984375	8289.306640625	9506.17578125	11138.0458984375	1233.2244873046875	7595.52099609375	13732.3681640625	-427.3944091796875	11121.8740234375	14648.1015625	9045.623046875	11830.3076171875	11054.1728515625	11705.7021484375	15008.6650390625	9968.7666015625	12062.8759765625	5664.03271484375	13389.8193359375	4662.8779296875	416.291015625	8762.73828125	8459.349609375	13643.0908203125	4066.025390625	8431.8486328125	14327.41015625	12729.7919921875	14438.4384765625	16717.41796875	14627.34765625	14312.0576171875	13210.8330078125	15255.6943359375	12452.1640625	13971.9990234375	14775.1181640625	15412.2744140625	15980.703125	13964.537109375	9745.8837890625	8922.8515625	13712.279296875	14164.720703125	14154.001953125	16261.544921875	12278.9609375	12453.2138671875	12691.787109375	14076.9169921875	13835.43359375	15312.3779296875	12930.474609375	14933.8525390625	13067.96484375	13180.474609375	24136.33984375	15728.07421875	18059.392578125	14722.7177734375	12656.517578125	13261.1865234375	14067.064453125	15369.0400390625	13678.4775390625	13820.4677734375	15362.6728515625	14979.8251953125	14965.087890625	17420.376953125	15125.9677734375	14889.68359375	13573.0556640625	14206.37109375	11269.3642578125	9501.8896484375	14665.0615234375	15852.81640625	14728.1728515625	15972.724609375	13972.033203125	13803.8818359375	13944.93359375	13103.5673828125	11435.1005859375	16875.5546875	13254.208984375	15059.650390625	13776.265625	13330.5849609375	19482.896484375	12929.4482421875	15720.80859375	13899.8125
2100	2400	11318.0341796875	14330.6083984375	7637.21875	11097.419921875	10163.9619140625	10713.68359375	15015.384765625	8105.40966796875	8603.78515625	8082.34423828125	891.0744018554688	1851.7562255859375	11896.7744140625	4404.87744140625	10656.79296875	13989.5634765625	8016.9404296875	11318.072265625	9479.2041015625	10883.9423828125	13454.19921875	9057.9091796875	9713.8505859375	5245.6201171875	12415.61328125	3434.658447265625	402.0032043457031	8757.6806640625	7083.919921875	12499.994140625	3609.869140625	8189.54736328125	13611.416015625	12141.8935546875	12694.37890625	15332.5224609375	11751.56640625	13517.2841796875	12834.5556640625	13597.5546875	11995.548828125	12987.7109375	13495.2412109375	14666.6669921875	13008.974609375	12307.4150390625	9710.126953125	5799.6328125	13095.3681640625	12685.1015625	12972.732421875	14775.5966796875	11137.7119140625	10991.818359375	10923.4111328125	12607.3271484375	12519.84375	14238.78125	11403.9501953125	13705.5810546875	12379.5419921875	12354.833984375	22195.25390625	15744.3916015625	17891.755859375	13494.6162109375	12708.9169921875	12532.09375	13065.2587890625	16477.341796875	12857.580078125	13152.3017578125	14715.7412109375	13666.630859375	14603.58984375	16467.279296875	13644.20703125	14076.7998046875	12878.0556640625	13503.8974609375	9141.025390625	6998.43359375	13222.6298828125	14820.4365234375	13525.642578125	14711.5263671875	12444.462890625	14051.4892578125	12349.7001953125	11710.1806640625	11028.1298828125	16243.39453125	12259.0029296875	14195.0537109375	13180.310546875	12166.9296875	17105.935546875	13288.595703125	13924.787109375	12957.96484375
2400	2700	10944.6416015625	13009.1396484375	6848.0927734375	8896.984375	6982.76025390625	10337.814453125	11626.1806640625	6555.5478515625	7040.61962890625	8401.2451171875	1231.2197265625	1385.6376953125	11323.888671875	2051.99853515625	10476.78515625	12398.5869140625	6956.8779296875	9029.9365234375	8139.6982421875	9532.7919921875	12954.2685546875	7899.3779296875	9659.2587890625	5676.5185546875	10709.4140625	421.64019775390625	261.5173034667969	8571.890625	5255.29248046875	11232.2255859375	4337.65478515625	8085.03125	12909.8408203125	9958.94140625	12153.416015625	13712.3603515625	11532.9267578125	12814.6484375	11635.76171875	13250.482421875	12291.6474609375	12635.6875	12351.7314453125	14507.6826171875	11356.013671875	11175.3349609375	8252.8681640625	6297.98974609375	11721.3466796875	12423.283203125	11636.9931640625	12672.9130859375	9495.162109375	11164.564453125	9830.173828125	11291.59375	12773.7509765625	12831.26171875	10165.3837890625	12708.7255859375	11024.322265625	11340.8271484375	20536.369140625	13085.7734375	15277.794921875	12033.0830078125	10737.3359375	10243.4599609375	11867.396484375	14396.029296875	10641.6220703125	12132.8974609375	13620.30859375	12498.0849609375	12070.33203125	15299.42578125	12871.2314453125	13500.533203125	12272.4912109375	12072.8681640625	7251.98583984375	6413.673828125	12444.6650390625	14121.111328125	12030.134765625	12888.9599609375	10914.8076171875	11383.6103515625	10846.8486328125	10561.9521484375	8705.490234375	14606.84375	10969.6416015625	13021.1953125	11464.3095703125	11369.16796875	15146.0712890625	11532.232421875	15191.9638671875	11465.3740234375
