frame_start	frame_end	Left-Cerebral-White-Matter	Left-Cerebellum-White-Matter	Left-Cerebellum-Cortex	Left-Thalamus	Left-Caudate	Left-Putamen	Left-Pallidum	Brain-Stem	Left-Hippocampus	Left-Amygdala	CSF	Left-Accumbens-area	Left-VentralDC	Left-choroid-plexus	Right-Cerebral-White-Matter	Right-Cerebellum-White-Matter	Right-Cerebellum-Cortex	Right-Thalamus	Right-Caudate	Right-Putamen	Right-Pallidum	Right-Hippocampus	Right-Amygdala	Right-Accumbens-area	Right-VentralDC	Right-choroid-plexus	AirCavity	Skull	Vermis	Pons	CSF-ExtraCerebral	Head-ExtraCerebral	ctx-lh-bankssts	ctx-lh-caudalanteriorcingulate	ctx-lh-caudalmiddlefrontal	ctx-lh-cuneus	ctx-lh-entorhinal	ctx-lh-fusiform	ctx-lh-inferiorparietal	ctx-lh-inferiortemporal	ctx-lh-isthmuscingulate	ctx-lh-lateraloccipital	ctx-lh-lateralorbitofrontal	ctx-lh-lingual	ctx-lh-medialorbitofrontal	ctx-lh-middletemporal	ctx-lh-parahippocampal	ctx-lh-paracentral	ctx-lh-parsopercularis	ctx-lh-parsorbitalis	ctx-lh-parstriangularis	ctx-lh-pericalcarine	ctx-lh-postcentral	ctx-lh-posteriorcingulate	ctx-lh-precentral	ctx-lh-precuneus	ctx-lh-rostralanteriorcingulate	ctx-lh-rostralmiddlefrontal	ctx-lh-superiorfrontal	ctx-lh-superiorparietal	ctx-lh-superiortemporal	ctx-lh-supramarginal	ctx-lh-frontalpole	ctx-lh-temporalpole	ctx-lh-transversetemporal	ctx-lh-insula	ctx-rh-bankssts	ctx-rh-caudalanteriorcingulate	ctx-rh-caudalmiddlefrontal	ctx-rh-cuneus	ctx-rh-entorhinal	ctx-rh-fusiform	ctx-rh-inferiorparietal	ctx-rh-inferiortemporal	ctx-rh-isthmuscingulate	ctx-rh-lateraloccipital	ctx-rh-lateralorbitofrontal	ctx-rh-lingual	ctx-rh-medialorbitofrontal	ctx-rh-middletemporal	ctx-rh-parahippocampal	ctx-rh-paracentral	ctx-rh-parsopercularis	ctx-rh-parsorbitalis	ctx-rh-parstriangularis	ctx-rh-pericalcarine	ctx-rh-postcentral	ctx-rh-posteriorcingulate	ctx-rh-precentral	ctx-rh-precuneus	ctx-rh-rostralanteriorcingulate	ctx-rh-rostralmiddlefrontal	ctx-rh-superiorfrontal	ctx-rh-superiorparietal	ctx-rh-superiortemporal	ctx-rh-supramarginal	ctx-rh-frontalpole	ctx-rh-temporalpole	ctx-rh-transversetemporal	ctx-rh-insula
0	30	8.815969467163086	13.520252227783203	10.0201416015625	12.741250991821289	5.708601951599121	3.7563090324401855	9.768192291259766	15.63198471069336	5.8077802658081055	2.617398500442505	13.051027297973633	7.156865119934082	2.598353147506714	11.12070083618164	9.49966049194336	7.767260551452637	7.591156959533691	11.988635063171387	8.038326263427734	2.975752592086792	5.93248987197876	7.266181945800781	2.2613601684570312	0.8577993512153625	3.2548446655273438	12.604894638061523	7.5829362869262695	9.494498252868652	1.1883130073547363	11.37128734588623	9.46136474609375	9.72834300994873	21.904315948486328	4.834348678588867	6.286349773406982	4.271882057189941	2.7607991695404053	3.2921926975250244	5.402751922607422	11.14759635925293	38.34977340698242	7.595681190490723	2.771235227584839	9.247482299804688	2.6894173622131348	6.972168445587158	17.996179580688477	4.1706037521362305	5.073407173156738	12.544103622436523	7.83244514465332	4.399479866027832	7.883907794952393	17.646289825439453	8.399794578552246	4.363611221313477	1.8332195281982422	3.375856399536133	7.148684978485107	10.7589693069458	6.655862808227539	5.271265983581543	1.134796380996704	8.08956241607666	3.4178125858306885	10.330780029296875	7.642196178436279	5.130329608917236	7.756853103637695	8.203397750854492	17.684749603271484	23.513952255249023	8.659219741821289	15.364033699035645	6.310927867889404	12.550459861755371	2.689060688018799	6.215876579284668	2.2598047256469727	12.486714363098145	13.57426929473877	4.607062339782715	19.662458419799805	7.9660539627075195	6.977254867553711	18.515268325805664	8.648033142089844	4.251835346221924	6.636948585510254	4.19282341003418	1.802409052848816	5.012537002563477	10.78746223449707	11.208025932312012	5.958322048187256	18.700700759887695	0.9119916558265686	7.859920024871826	3.210989475250244	7.447489261627197
30	60	635.716064453125	709.0287475585938	781.2265625	633.9429931640625	751.5984497070312	1115.14892578125	848.2652587890625	766.586669921875	954.8617553710938	984.4427490234375	563.9857788085938	1279.2210693359375	554.9713134765625	745.2413940429688	629.5231323242188	543.20703125	847.8758544921875	698.4854736328125	818.7234497070312	832.7947998046875	576.3263549804688	746.0407104492188	920.8728637695312	1209.5997314453125	680.0829467773438	449.6905517578125	291.03265380859375	358.3751220703125	803.8659057617188	697.961181640625	907.6582641601562	346.77001953125	837.1603393554688	1061.697021484375	992.1573486328125	1076.4110107421875	1025.335205078125	762.0824584960938	819.1239013671875	728.8116455078125	907.4000244140625	858.7313842773438	1021.03173828125	967.883544921875	1112.767333984375	755.7211303710938	879.4273071289062	781.8255004882812	1105.47314453125	1263.6444091796875	1051.80078125	994.2869262695312	772.9263916015625	773.9221801757812	946.87841796875	1004.4370727539062	1097.6387939453125	919.7955322265625	894.01953125	752.5936279296875	968.7535400390625	886.2366333007812	1056.841064453125	960.6791381835938	1575.669189453125	1318.34765625	832.7700805664062	869.0576171875	953.3806762695312	1083.9420166015625	794.1962890625	844.3731689453125	749.5152587890625	740.1754760742188	872.24658203125	825.9510498046875	1179.7685546875	952.1675415039062	1230.48828125	854.6672973632812	845.852294921875	686.266845703125	1219.28955078125	877.6414184570312	1034.0279541015625	936.8847045898438	803.1728515625	1110.8037109375	844.1904907226562	819.5551147460938	1116.3974609375	887.559326171875	897.42236328125	746.2196044921875	1000.1423950195312	922.4078369140625	1074.0406494140625	888.1153564453125	1800.236328125	1239.6124267578125
60	90	6384.65087890625	7187.92138671875	9526.2236328125	9166.111328125	8825.326171875	11035.638671875	6995.0849609375	7166.30859375	8327.021484375	8404.81640625	6133.05029296875	11137.90625	7902.044921875	5659.365234375	6499.1787109375	6472.96728515625	9245.65625	8877.5673828125	9583.15625	10831.578125	7615.02734375	7781.7900390625	8158.36865234375	10833.69921875	7394.7958984375	5691.61376953125	2498.763916015625	3108.329833984375	8993.2626953125	7512.11962890625	8813.697265625	2649.90625	9306.0654296875	9432.2841796875	9832.158203125	11571.3134765625	8506.275390625	9305.0244140625	9352.40625	8975.0078125	10382.787109375	9413.08203125	10500.5732421875	10717.2451171875	11720.4033203125	9084.8291015625	8209.4228515625	8701.404296875	10239.716796875	10180.208984375	10313.0556640625	11707.98828125	8203.0556640625	10785.876953125	9032.98046875	10320.58984375	10697.19140625	10146.927734375	9662.587890625	8504.921875	9694.2607421875	9313.2177734375	10729.744140625	7728.78173828125	12582.2138671875	10987.056640625	10024.734375	9768.5771484375	9870.1953125	11936.962890625	7686.62744140625	8699.3427734375	9339.591796875	8313.8095703125	9854.0029296875	10151.7470703125	10813.3427734375	10858.2509765625	11415.9931640625	9318.0126953125	7850.2685546875	8212.8837890625	11346.396484375	10420.1318359375	10886.6513671875	11860.265625	8438.017578125	10701.8935546875	8952.8681640625	10338.8037109375	10751.06640625	10409.6806640625	9804.314453125	8177.994140625	10056.47265625	9710.1083984375	10808.35546875	9265.5009765625	11532.6748046875	10906.994140625
90	120	15693.8818359375	17328.279296875	22892.9765625	21889.5859375	22812.060546875	27384.69921875	17802.708984375	17443.34765625	18904.80078125	17628.1640625	15173.404296875	23887.015625	18991.541015625	15555.0751953125	15942.0029296875	16676.416015625	22495.75390625	23154.701171875	23471.1953125	26984.283203125	20530.11328125	17608.806640625	18126.521484375	24582.21484375	18628.7109375	15375.419921875	5104.6689453125	6980.3369140625	22479.162109375	18242.560546875	20386.60546875	5994.185546875	23700.529296875	23859.4375	24254.376953125	27017.482421875	20336.533203125	22931.37890625	22127.96484375	22208.857421875	24371.1796875	23387.869140625	24672.001953125	27748.5390625	25744.095703125	22459.48046875	19055.244140625	20835.626953125	25035.70703125	25056.458984375	24897.67578125	29735.2109375	20068.5390625	26400.302734375	22211.208984375	24845.263671875	24682.826171875	25007.412109375	23303.8359375	21001.279296875	22881.69921875	23053.498046875	25276.654296875	19337.546875	29459.216796875	24574.0859375	24239.994140625	22769.623046875	24321.869140625	27219.3203125	18276.142578125	21492.111328125	22728.03515625	21386.916015625	24580.77734375	24412.39453125	25368.6875	26297.330078125	26077.3046875	23038.513671875	18959.515625	20915.828125	27140.576171875	24574.634765625	25986.81640625	29334.6015625	21084.240234375	24977.50390625	21876.83984375	24736.47265625	26034.7890625	25490.0	24338.9140625	20986.158203125	23559.841796875	23555.724609375	26663.220703125	20523.197265625	28618.9296875	23244.72265625
120	150	25374.5625	28039.91015625	36564.9765625	35804.09765625	37785.51953125	44586.328125	31400.576171875	26629.169921875	29888.53125	28536.0546875	24171.0234375	36951.85546875	28498.4765625	22171.68359375	25710.458984375	26729.75	36231.58203125	36455.9140625	37898.453125	42965.1484375	31510.384765625	31482.861328125	28732.068359375	43931.6484375	29043.216796875	24014.0078125	7617.716796875	10439.3642578125	35116.9375	29445.470703125	31327.3203125	9069.3828125	36279.8671875	38250.9609375	38949.93359375	44632.17578125	29395.578125	35797.21484375	36233.6484375	35186.125	38318.421875	36540.39453125	39928.2109375	42420.28515625	41449.90234375	36159.4453125	31139.833984375	34261.20703125	40050.33203125	38954.21484375	40213.90625	47515.90234375	33336.6875	41965.93359375	36472.7421875	40107.2421875	39517.6171875	40603.2734375	37710.0703125	34709.14453125	35585.390625	37348.76953125	42204.4609375	30567.46875	43932.0234375	37292.37109375	37792.48828125	37895.70703125	38728.53515625	44523.7265625	29814.32421875	35367.78515625	36428.75	34118.4296875	39667.08984375	39194.40625	39928.1171875	42417.890625	41052.140625	36721.10546875	29407.203125	34836.34375	41274.61328125	40376.125	41399.5703125	47552.98046875	34089.5859375	41515.39453125	35246.609375	40402.83203125	39727.90234375	40777.03125	38004.2890625	34577.078125	36266.890625	37347.28125	43659.12890625	31832.47265625	45404.59765625	36590.671875
150	180	31181.111328125	34635.8515625	45075.921875	44356.70703125	47560.2421875	55252.6484375	38484.34765625	33380.796875	36431.37890625	37099.125	29912.025390625	53974.9765625	34677.73046875	27050.962890625	31654.396484375	33638.6328125	44612.24609375	45805.1640625	47444.51171875	54448.78515625	39032.8046875	36883.5859375	36725.0078125	47280.99609375	35998.8671875	29561.5859375	8740.755859375	12319.72265625	42961.27734375	35467.7265625	37576.125	10903.5439453125	46342.64453125	47877.0	46945.4140625	53272.4765625	36148.87890625	44523.24609375	44801.68359375	43978.8515625	45023.47265625	45689.234375	48350.828125	51956.9765625	49983.640625	45155.6875	39443.1171875	41425.76171875	48312.828125	47993.828125	48529.48046875	56604.7265625	41379.97265625	49673.015625	44369.859375	49525.76953125	47303.8046875	50403.10546875	45537.51953125	43514.55078125	44382.8125	45662.82421875	51520.09375	39484.66015625	52999.52734375	45355.94140625	46808.91015625	45064.34375	47538.6015625	54341.05078125	36480.28125	43708.65234375	45655.4296875	42100.11328125	48303.01171875	49046.0234375	49467.75390625	51434.60546875	51177.4375	45605.86328125	35388.91015625	41887.953125	50645.0078125	49653.60546875	49596.28125	58840.609375	41429.0390625	50529.35546875	43267.0546875	49998.546875	47700.0703125	50667.69140625	46790.43359375	41965.55859375	44886.83984375	45808.9765625	53213.14453125	39240.73046875	55956.69921875	44629.33203125
180	240	34255.4375	38206.27734375	49544.59765625	48185.06640625	50981.10546875	60918.34765625	42341.796875	35574.9296875	39036.703125	39736.26171875	31340.240234375	53256.5390625	37644.5859375	28322.306640625	34885.9140625	36987.24609375	49515.0	51345.29296875	53088.51171875	60127.3359375	43302.17578125	40026.609375	40017.66015625	57255.39453125	39798.26953125	30765.708984375	9003.361328125	12911.1572265625	47196.43359375	37966.91015625	39329.73828125	11531.8291015625	50145.0859375	50769.49609375	51142.5546875	58213.01953125	38717.23046875	48900.19140625	48551.7578125	47805.34765625	49301.5703125	50140.04296875	51847.21875	55802.94140625	53580.46484375	49595.00390625	41207.984375	45363.63671875	52280.62109375	52216.0546875	51774.5078125	61526.55859375	44287.15625	53752.38671875	48126.734375	52888.671875	50250.4921875	54478.75	50056.015625	46856.3125	47043.1328125	49470.58984375	54225.85546875	40952.25	57776.2421875	47460.77734375	51784.26171875	48623.6484375	50616.625	56948.94140625	36941.3671875	47536.37890625	49117.71875	45786.59765625	50810.71484375	52853.234375	51566.0625	54185.2109375	53391.78515625	49339.8515625	38936.19140625	45812.24609375	54351.94140625	52423.65625	54514.390625	63133.875	45578.796875	53787.84375	47062.22265625	53765.625	50967.78515625	55031.67578125	50533.52734375	46783.37109375	47415.03125	49160.44140625	56051.140625	40403.9375	58433.9375	47255.10546875
240	300	33860.94921875	38044.70703125	48540.65625	47671.421875	50139.08203125	59593.26953125	42231.81640625	35993.390625	37839.59375	39024.03125	30157.736328125	54856.20703125	37218.8984375	25842.14453125	34348.71875	36895.5546875	48279.09375	50286.70703125	51866.328125	58851.02734375	42451.2734375	38351.25390625	40029.83203125	53538.90625	38107.34765625	28233.3046875	8615.1552734375	12697.6318359375	44833.28125	37622.7109375	37516.6328125	11684.1953125	48903.71875	47759.7421875	49639.09765625	55686.4765625	38610.46484375	48049.1875	47650.93359375	46842.76953125	46832.6484375	48368.21875	50269.10546875	54773.35546875	51687.8515625	48111.4453125	39607.6640625	44054.8671875	49134.75390625	49658.0859375	49784.5625	58074.55859375	43519.89453125	50726.43359375	46570.86328125	51301.21875	49445.40234375	52837.515625	48085.203125	45907.27734375	46202.00390625	47610.4921875	53206.9921875	41103.33984375	53990.03125	46910.25	50456.203125	46990.1171875	48778.8828125	54878.234375	35627.47265625	47430.6328125	47909.125	44894.98046875	47738.3828125	50370.2734375	49850.23046875	53060.140625	52159.796875	48008.0234375	39123.19140625	44825.296875	51460.9921875	50718.8359375	51677.7578125	59275.296875	43899.16796875	52152.8671875	45088.640625	52358.5078125	49782.7578125	53255.92578125	48769.80859375	45591.0625	46304.71875	47953.73828125	52548.0625	40318.5546875	55576.015625	45900.76953125
300	360	32519.822265625	36253.08203125	45881.4609375	46206.2421875	46654.02734375	55454.8203125	42514.0	34665.421875	36843.4296875	38146.64453125	28626.998046875	50959.32421875	36760.48046875	24654.25	32934.21875	35252.5390625	45679.77734375	48597.828125	48370.296875	55281.390625	41810.71484375	38894.27734375	39226.10546875	49837.98828125	37187.21875	27296.693359375	7993.70556640625	12286.037109375	42469.2109375	35207.6484375	34650.63671875	11511.6572265625	45567.1953125	45583.77734375	45862.1171875	50893.31640625	38015.4296875	45061.51171875	44835.50390625	44267.5	44040.83203125	44666.83984375	47005.68359375	49862.4765625	48863.86328125	45974.12890625	38409.34765625	41337.50390625	46722.61328125	47387.546875	46357.54296875	52124.56640625	40081.84765625	47152.328125	43267.8046875	47740.88671875	46149.29296875	48860.671875	44850.41015625	42672.81640625	43318.83984375	43775.07421875	49596.30078125	39312.25390625	49338.04296875	44254.34765625	47065.87890625	43890.1484375	45678.80078125	49705.640625	35337.62109375	45039.8984375	44862.1015625	42987.02734375	43061.89453125	47485.80078125	47068.54296875	48789.55078125	48083.86328125	45322.28125	37506.98828125	42093.7578125	47571.12890625	48055.98828125	46962.515625	53702.84765625	41141.52734375	47931.9453125	42185.578125	48226.046875	47436.2421875	48394.0390625	45504.41796875	42722.7265625	43489.08984375	45105.71875	49991.83984375	39770.234375	51771.82421875	43598.3984375
360	480	30110.953125	34324.31640625	41318.86328125	43366.07421875	41998.375	51202.4609375	40138.921875	31847.00390625	33668.32421875	37088.12890625	26267.357421875	46734.63671875	34826.23046875	22592.177734375	30518.033203125	33151.9921875	41443.75390625	44957.3515625	43468.08203125	50590.3828125	41161.73046875	34715.75	36640.74609375	46091.75390625	35853.28515625	24910.0234375	7491.0341796875	11783.1650390625	38636.52734375	33415.80859375	30582.943359375	11400.037109375	41440.59765625	40799.16015625	40793.61328125	43979.61328125	34296.6953125	40571.2109375	39916.1484375	39970.859375	38054.953125	39695.140625	41495.88671875	43947.9921875	43612.01171875	41416.84375	35854.58984375	36987.71875	41451.65625	40680.1953125	41146.66015625	45282.17578125	35999.22265625	41783.1328125	38939.87109375	41798.30078125	41729.87890625	43197.68359375	39832.8046875	38218.875	39694.859375	39373.21484375	44014.484375	36436.171875	43771.51171875	40115.85546875	42104.91796875	40067.31640625	40280.03515625	43603.5625	33442.296875	40793.15625	40425.90234375	39031.30859375	39388.5078125	41554.16015625	41537.51953125	43208.2890625	43163.96484375	41083.02734375	34246.54296875	37767.27734375	42424.734375	41372.98046875	41752.87890625	46073.26171875	36134.77734375	42701.09375	37612.12109375	42382.703125	42531.3203125	43292.53125	40114.12109375	38234.27734375	39509.1484375	40220.0234375	44562.66796875	38034.48828125	43037.15625	39718.79296875
480	600	27196.650390625	31350.63671875	35161.8671875	38491.91796875	35803.546875	43889.67578125	37572.046875	29201.224609375	29946.5078125	32427.54296875	23198.1171875	40184.05078125	32184.359375	19410.955078125	27372.732421875	30179.388671875	35474.3828125	40432.47265625	34769.34765625	43634.3046875	37019.703125	30759.333984375	33261.5625	38341.07421875	33265.6328125	21891.8828125	6828.5185546875	11019.5107421875	32712.705078125	30779.66796875	25618.3125	11057.255859375	35604.9140625	35386.375	34341.8359375	37009.09765625	29949.26171875	35729.26953125	33526.453125	34841.40234375	32431.951171875	33758.7734375	35098.2578125	37845.015625	36422.5078125	35392.53515625	31248.06640625	31466.296875	34776.34765625	35198.8125	34626.50390625	36951.8671875	30664.634765625	35452.9140625	32714.2265625	35452.5546875	35790.19140625	36294.63671875	33623.89453125	32454.91796875	34100.046875	33069.01953125	36194.1875	32325.314453125	36332.1796875	34424.94140625	36021.34375	33940.7109375	33669.33984375	36076.91796875	30199.5078125	35463.7578125	34173.65625	33655.1015625	33555.109375	35154.51171875	35243.5546875	36589.77734375	36844.73828125	35121.1015625	30546.89453125	31835.017578125	35157.875	34619.3203125	34394.078125	38233.8984375	30612.193359375	36643.03125	31732.966796875	35234.36328125	36498.55078125	35826.59765625	33895.171875	32249.939453125	33609.921875	33827.09375	35977.26171875	33143.8671875	36755.390625	34739.69921875
600	900	23423.607421875	27122.42578125	27687.48046875	32058.27734375	26823.453125	34585.12109375	32927.36328125	25253.533203125	25083.654296875	28387.74609375	19326.974609375	32133.60546875	28110.703125	16862.0390625	23527.15234375	26615.310546875	27832.59765625	33423.78515625	27534.021484375	34313.76171875	31693.111328125	25697.16796875	28513.537109375	31815.3203125	28567.857421875	18664.158203125	6196.27734375	10366.88671875	25263.4765625	26552.42578125	19922.529296875	10860.974609375	28383.564453125	27840.857421875	26697.048828125	28546.865234375	25793.880859375	29068.3671875	26446.638671875	27688.830078125	25707.935546875	26069.369140625	27822.341796875	28975.994140625	28795.427734375	28382.216796875	26072.21875	24479.708984375	26847.28125	26687.880859375	26896.662109375	28488.6171875	23895.060546875	28119.28515625	25874.083984375	27528.0703125	28206.2265625	28238.783203125	26514.611328125	25550.626953125	27486.755859375	26115.552734375	27790.830078125	27163.201171875	29036.30859375	28575.90234375	28569.24609375	26818.35546875	26043.650390625	27832.48828125	24896.919921875	28670.64453125	26469.802734375	26963.556640625	26094.779296875	27501.310546875	28069.955078125	28450.443359375	29426.369140625	27763.94921875	24657.5234375	25026.462890625	27473.736328125	26976.72265625	26824.69140625	28738.056640625	23927.052734375	28268.005859375	25015.626953125	27563.935546875	28653.423828125	28069.44921875	26416.0859375	25420.904296875	26554.521484375	25993.08984375	28025.107421875	27524.041015625	28697.646484375	28269.458984375
900	1200	20170.974609375	22923.75	20707.21875	25789.068359375	20285.337890625	26189.5703125	27411.265625	20879.328125	20275.0546875	22830.26953125	15688.630859375	24172.46875	23507.4453125	14123.9716796875	20219.59765625	22506.84375	20836.04296875	26492.427734375	20844.794921875	26216.431640625	27100.388671875	20972.697265625	22810.515625	23897.662109375	24025.15234375	16376.203125	5513.490234375	9855.7177734375	19035.0546875	22891.0859375	15275.9453125	10667.5498046875	22217.54296875	21811.740234375	20841.677734375	22074.232421875	20296.09375	23113.158203125	20632.58203125	21930.30859375	20329.064453125	20683.8984375	21544.779296875	22429.841796875	22383.765625	22031.703125	20384.03515625	19428.4140625	21069.90234375	20516.705078125	21458.642578125	21796.296875	18681.16015625	22197.697265625	20051.435546875	20865.126953125	21931.580078125	21754.943359375	20400.923828125	19899.498046875	21478.59375	20327.173828125	21222.69140625	22089.66796875	22192.291015625	22851.166015625	22406.91796875	21329.732421875	20390.470703125	21463.24609375	20394.921875	22920.484375	20438.912109375	21304.705078125	20706.8203125	21655.25390625	22079.98828125	22224.455078125	22698.06640625	21415.06640625	19681.169921875	19204.46875	21346.73046875	20469.953125	20675.97265625	22241.30859375	18360.783203125	21984.388671875	19319.05859375	21104.076171875	22690.4765625	21538.78515625	20481.044921875	19776.685546875	20501.880859375	19977.044921875	21150.19140625	22586.654296875	22788.689453125	22643.642578125
1200	1500	18347.666015625	20061.95703125	16474.962890625	21126.724609375	16458.833984375	21244.123046875	23543.046875	18113.8203125	17249.857421875	19059.984375	13932.09375	18674.060546875	20235.330078125	12720.94921875	18286.923828125	19913.634765625	16622.771484375	21260.517578125	16853.861328125	20916.2421875	23021.87109375	17153.927734375	19056.14453125	18829.98046875	20932.48828125	14551.66015625	5327.02099609375	9551.162109375	15714.494140625	19949.5859375	12964.1376953125	10548.3603515625	19473.537109375	17992.599609375	17881.5546875	18340.36328125	16973.88671875	19574.26953125	17466.88671875	18599.671875	17883.04296875	17661.806640625	18679.15234375	18962.58984375	18866.701171875	18573.06640625	17670.849609375	16393.892578125	17827.392578125	17956.80859375	17941.75390625	19115.6875	15815.705078125	18011.73828125	16896.69140625	17882.708984375	18237.28125	18426.576171875	17303.134765625	16888.490234375	18067.19140625	17183.4921875	17175.005859375	18557.509765625	19012.498046875	19304.16015625	18930.185546875	18041.091796875	17016.029296875	18121.048828125	16957.509765625	18960.71875	17277.6171875	18040.521484375	17797.36328125	18479.271484375	18945.8828125	18703.53125	19066.314453125	17873.3515625	16880.998046875	16422.951171875	17992.39453125	17551.51171875	17432.044921875	19004.251953125	15391.47265625	18569.6953125	16396.21484375	17779.56640625	18672.06640625	18252.5703125	17234.951171875	16628.66796875	17285.283203125	16726.734375	17181.84375	18513.203125	19379.62109375	19570.62109375
1500	1800	16901.412109375	17812.552734375	13611.978515625	17743.4921875	14371.21875	17489.845703125	20128.251953125	15469.052734375	14861.09765625	16113.5234375	12302.6103515625	15670.7666015625	17628.84375	11724.1591796875	16858.498046875	17798.12890625	13802.517578125	18042.5625	14666.759765625	17471.498046875	19395.939453125	15304.166015625	16152.765625	15953.4111328125	18266.994140625	13141.72265625	5058.47021484375	9336.3525390625	12822.0224609375	17786.74609375	11400.8564453125	10385.4921875	16665.236328125	15806.8291015625	15656.162109375	16133.427734375	14666.798828125	17143.875	15553.6591796875	16432.8515625	15759.8037109375	15620.505859375	16696.958984375	17019.21875	16724.759765625	16080.0302734375	14505.7646484375	14397.892578125	15713.642578125	15804.5068359375	16119.3876953125	17069.115234375	14139.5458984375	16497.595703125	14967.3134765625	15684.2666015625	15966.11328125	15959.9619140625	15223.03125	15000.8212890625	15796.1923828125	15213.908203125	15064.396484375	15719.4931640625	17190.84375	16770.76171875	16729.087890625	16012.1982421875	15023.2236328125	15848.947265625	14630.78515625	16944.51953125	15102.6357421875	15968.392578125	16182.80078125	16445.6953125	16712.400390625	16763.640625	16283.8955078125	15536.0791015625	15096.755859375	14554.966796875	15725.205078125	15730.4931640625	15365.453125	17171.279296875	13590.927734375	16250.2451171875	14456.3876953125	15761.09375	15924.6083984375	15960.1455078125	15188.888671875	14687.8671875	14835.3095703125	14702.998046875	14552.732421875	15642.4921875	16071.826171875	16428.384765625
1800	2100	15678.435546875	15910.0302734375	11588.0009765625	15315.5205078125	12757.84765625	15028.0517578125	17416.654296875	13783.5302734375	12697.51953125	13799.841796875	11215.2119140625	13849.779296875	15158.2431640625	10572.564453125	15567.578125	15764.9150390625	11658.2490234375	15056.5009765625	12603.201171875	15292.0849609375	17020.9453125	13136.12109375	13561.806640625	13312.1279296875	15788.2275390625	12446.380859375	4829.134765625	9037.7919921875	11294.5771484375	16127.669921875	10321.5263671875	10061.087890625	15449.7119140625	14329.732421875	14079.3525390625	14434.392578125	13350.58984375	15495.384765625	13961.673828125	14735.7294921875	14574.203125	14311.328125	14820.447265625	15339.7978515625	14910.7216796875	14537.30078125	13240.3046875	13011.34375	14211.2998046875	14048.0419921875	14466.953125	15703.974609375	12722.884765625	14224.9775390625	13546.22265625	14201.2841796875	14521.1943359375	14390.888671875	13700.9599609375	13524.41796875	14250.525390625	13589.744140625	13452.2548828125	14365.3720703125	14933.767578125	14873.1455078125	15390.6923828125	13977.8896484375	13511.619140625	14538.9599609375	13101.4658203125	15045.6748046875	13645.3515625	14295.359375	14370.8330078125	15069.9375	14800.1865234375	14932.095703125	14813.986328125	13785.298828125	13547.462890625	13190.28125	14245.162109375	13914.314453125	14088.5634765625	15526.4404296875	12324.42578125	14553.599609375	13030.6572265625	14377.0166015625	14470.751953125	14325.3388671875	13361.9423828125	13248.3466796875	13457.345703125	13232.111328125	13734.5068359375	14365.5537109375	14765.009765625	15017.3818359375
2100	2400	14669.3623046875	14178.8544921875	10322.0634765625	13303.564453125	11808.3818359375	13549.18359375	15154.0341796875	12323.224609375	11616.376953125	12064.634765625	10355.2568359375	11808.5849609375	13790.7880859375	10199.3701171875	14573.5634765625	13925.837890625	10359.2099609375	13182.1064453125	11249.986328125	13681.7646484375	15034.626953125	11669.41796875	12415.7421875	11602.7998046875	14309.3681640625	10952.888671875	4523.0673828125	8842.7744140625	9673.625	14607.5927734375	9529.2177734375	9635.1171875	14624.4736328125	12942.07421875	13150.1103515625	13577.0107421875	11600.806640625	14594.9130859375	12686.6337890625	13525.296875	13477.4736328125	13130.578125	13695.955078125	14400.8623046875	14014.447265625	13484.05078125	12825.44921875	12048.3583984375	13119.8857421875	13723.8818359375	13451.5185546875	14309.337890625	11518.9267578125	13190.9462890625	12341.4775390625	13139.708984375	13554.5732421875	13446.6005859375	12525.9111328125	12353.3037109375	12903.3798828125	12394.8369140625	12625.0380859375	12801.705078125	14050.4443359375	13861.1875	14273.9140625	12823.5009765625	12410.2431640625	13311.416015625	11789.234375	13879.9052734375	12658.259765625	13170.5712890625	13780.0302734375	13972.1044921875	13955.708984375	14234.5859375	13702.0283203125	12848.9345703125	12877.08984375	12083.6005859375	13233.75390625	12979.734375	12889.1865234375	14756.0390625	11096.783203125	13493.5546875	11792.2431640625	13083.5771484375	13453.1318359375	13203.3642578125	12200.3154296875	12365.2880859375	12433.201171875	12242.1982421875	12266.6923828125	13248.6953125	13622.72265625	13720.2685546875
2400	2700	13843.8642578125	12716.5986328125	9166.87890625	12061.7880859375	10665.1552734375	12431.0361328125	13020.8408203125	11054.966796875	10747.4267578125	11119.6484375	9637.6572265625	10542.236328125	12515.2841796875	9367.12109375	13729.1689453125	12684.4560546875	9298.4033203125	11811.416015625	10067.615234375	12592.84765625	13313.4375	10843.6044921875	10742.5751953125	9939.4150390625	12544.5771484375	10937.0556640625	4479.4423828125	8649.84765625	8778.3720703125	13338.4150390625	8905.0322265625	9422.138671875	13597.4375	12315.2373046875	11883.267578125	12559.2783203125	10673.6044921875	13633.2900390625	11871.875	13029.521484375	12864.2705078125	12427.3544921875	13067.283203125	13324.8779296875	13062.3662109375	12396.7841796875	11604.240234375	11262.54296875	12196.19921875	12994.0380859375	12431.7587890625	13827.974609375	10935.537109375	12292.8349609375	11576.4599609375	12340.49609375	12361.1259765625	12437.96875	11604.1005859375	11636.23046875	11911.869140625	11854.3017578125	11132.244140625	11729.8056640625	12683.736328125	12651.279296875	13020.931640625	12120.490234375	11542.7744140625	12185.37890625	11126.3125	13252.1904296875	11808.2392578125	12617.1611328125	12767.8095703125	13277.40625	13403.1728515625	13114.6337890625	12935.5576171875	12019.8017578125	11446.990234375	11486.7373046875	12448.986328125	12757.8076171875	12230.6171875	13148.0673828125	10379.8916015625	12498.2353515625	11088.642578125	12652.337890625	12100.1513671875	12280.9208984375	11546.6513671875	11341.23046875	11431.05078125	11495.0302734375	11253.7109375	12372.1435546875	12916.0654296875	12746.69140625
