frame_start	frame_end	Left-Cerebral-White-Matter	Left-Cerebellum-White-Matter	Left-Cerebellum-Cortex	Left-Thalamus	Left-Caudate	Left-Putamen	Left-Pallidum	Brain-Stem	Left-Hippocampus	Left-Amygdala	CSF	Left-Accumbens-area	Left-VentralDC	Left-choroid-plexus	Right-Cerebral-White-Matter	Right-Cerebellum-White-Matter	Right-Cerebellum-Cortex	Right-Thalamus	Right-Caudate	Right-Putamen	Right-Pallidum	Right-Hippocampus	Right-Amygdala	Right-Accumbens-area	Right-VentralDC	Right-choroid-plexus	AirCavity	Skull	Vermis	Pons	CSF-ExtraCerebral	Head-ExtraCerebral	ctx-lh-bankssts	ctx-lh-caudalanteriorcingulate	ctx-lh-caudalmiddlefrontal	ctx-lh-cuneus	ctx-lh-entorhinal	ctx-lh-fusiform	ctx-lh-inferiorparietal	ctx-lh-inferiortemporal	ctx-lh-isthmuscingulate	ctx-lh-lateraloccipital	ctx-lh-lateralorbitofrontal	ctx-lh-lingual	ctx-lh-medialorbitofrontal	ctx-lh-middletemporal	ctx-lh-parahippocampal	ctx-lh-paracentral	ctx-lh-parsopercularis	ctx-lh-parsorbitalis	ctx-lh-parstriangularis	ctx-lh-pericalcarine	ctx-lh-postcentral	ctx-lh-posteriorcingulate	ctx-lh-precentral	ctx-lh-precuneus	ctx-lh-rostralanteriorcingulate	ctx-lh-rostralmiddlefrontal	ctx-lh-superiorfrontal	ctx-lh-superiorparietal	ctx-lh-superiortemporal	ctx-lh-supramarginal	ctx-lh-frontalpole	ctx-lh-temporalpole	ctx-lh-transversetemporal	ctx-lh-insula	ctx-rh-bankssts	ctx-rh-caudalanteriorcingulate	ctx-rh-caudalmiddlefrontal	ctx-rh-cuneus	ctx-rh-entorhinal	ctx-rh-fusiform	ctx-rh-inferiorparietal	ctx-rh-inferiortemporal	ctx-rh-isthmuscingulate	ctx-rh-lateraloccipital	ctx-rh-lateralorbitofrontal	ctx-rh-lingual	ctx-rh-medialorbitofrontal	ctx-rh-middletemporal	ctx-rh-parahippocampal	ctx-rh-paracentral	ctx-rh-parsopercularis	ctx-rh-parsorbitalis	ctx-rh-parstriangularis	ctx-rh-pericalcarine	ctx-rh-postcentral	ctx-rh-posteriorcingulate	ctx-rh-precentral	ctx-rh-precuneus	ctx-rh-rostralanteriorcingulate	ctx-rh-rostralmiddlefrontal	ctx-rh-superiorfrontal	ctx-rh-superiorparietal	ctx-rh-superiortemporal	ctx-rh-supramarginal	ctx-rh-frontalpole	ctx-rh-temporalpole	ctx-rh-transversetemporal	ctx-rh-insula
0	30	11.485274314880371	16.888704299926758	9.337610244750977	12.505532264709473	-4.460598468780518	-2.603181838989258	14.417460441589355	25.18779182434082	3.949476718902588	-2.8667242527008057	23.533851623535156	15.391820907592773	-6.4893693923950195	73.3011474609375	9.211155891418457	7.419337272644043	6.1327900886535645	11.18984603881836	1.074618935585022	0.6096623539924622	3.276371717453003	14.774930000305176	-7.881039619445801	-11.325544357299805	-4.737913608551025	31.13042449951172	6.178371906280518	10.386539459228516	-15.559642791748047	8.246459007263184	13.982444763183594	11.120928764343262	42.407039642333984	20.130701065063477	-5.773263454437256	0.6020345091819763	-5.611702919006348	-13.1902494430542	-0.5550680756568909	15.271015167236328	86.60697174072266	-0.6292660236358643	-10.90988826751709	14.468708992004395	-5.659005165100098	1.407466173171997	28.194988250732422	-17.99169921875	-3.3004379272460938	19.649351119995117	7.213784694671631	-12.574175834655762	3.488057851791382	42.31245040893555	6.588810443878174	-11.355838775634766	-10.907995223999023	-11.65188980102539	-0.9717183113098145	5.693859577178955	0.9432297348976135	-4.977026462554932	-18.725658416748047	5.303083419799805	-15.376235008239746	12.345956802368164	-1.314802885055542	-16.359294891357422	3.6634528636932373	13.547846794128418	52.79762649536133	52.18904113769531	6.013882637023926	19.80398178100586	-7.1730194091796875	17.84356117248535	-8.493736267089844	-10.356110572814941	-6.6039628982543945	17.10787010192871	11.826190948486328	-1.3466510772705078	46.7694091796875	8.115360260009766	1.3836512565612793	38.50400924682617	-0.9084256291389465	-15.497584342956543	-3.0807881355285645	-4.624134540557861	-10.579803466796875	-1.7811899185180664	14.192873001098633	11.295028686523438	1.3411551713943481	39.42941665649414	-15.729113578796387	-4.435182094573975	-20.134136199951172	4.235408782958984
30	60	297.2397766113281	642.8177490234375	834.7890014648438	719.4343872070312	1226.7974853515625	1547.1517333984375	1016.1404418945312	931.0288696289062	1276.796875	1204.5494384765625	242.7960968017578	2481.19775390625	425.236328125	5125.68603515625	338.3671875	365.0734558105469	907.79541015625	846.0628662109375	1258.36328125	1048.14990234375	418.2192687988281	880.1366577148438	1323.483642578125	2302.77587890625	657.7974243164062	1685.2335205078125	243.154541015625	285.3370666503906	719.2747192382812	643.8495483398438	1065.3916015625	431.85430908203125	1252.6962890625	1579.36328125	1652.7528076171875	1608.5467529296875	1849.1737060546875	1018.8473510742188	1135.2152099609375	908.8998413085938	1321.344482421875	1350.09033203125	1640.2042236328125	1339.640625	1598.724853515625	869.103271484375	1202.1190185546875	861.383056640625	1732.2589111328125	2485.66552734375	1582.5950927734375	1938.3729248046875	841.3141479492188	750.4009399414062	1439.11962890625	1543.853759765625	1509.4471435546875	1440.759765625	1253.117919921875	760.0054931640625	1444.4210205078125	1307.7730712890625	2069.438232421875	1446.9940185546875	2963.996826171875	2185.143798828125	1144.020263671875	1031.0791015625	1252.66650390625	1663.24755859375	1402.3521728515625	1189.6138916015625	849.3927612304688	881.7875366210938	996.0520629882812	1114.6177978515625	1941.5762939453125	1266.18310546875	1923.1468505859375	1043.45654296875	869.332275390625	449.6102600097656	1928.9681396484375	1254.405517578125	1375.8184814453125	1508.7047119140625	858.3268432617188	1947.92236328125	1028.018798828125	910.4284057617188	1482.5604248046875	1217.68017578125	1202.55224609375	708.746826171875	1373.3046875	1299.9530029296875	1662.2548828125	1490.2547607421875	4431.78173828125	1933.3326416015625
60	90	2472.125	5787.01171875	10812.7119140625	11522.9697265625	14788.24609375	17222.908203125	3867.9052734375	7514.546875	10586.888671875	9766.556640625	4440.2451171875	16504.875	8277.69140625	22969.98828125	2687.319091796875	4705.04296875	10381.7587890625	11042.4619140625	16005.5859375	16182.6015625	5522.1533203125	9735.2060546875	10239.068359375	16231.568359375	7805.45361328125	20836.75	2046.196533203125	2474.66064453125	8910.9560546875	7974.97607421875	7278.0556640625	3110.29443359375	14614.64453125	12924.0732421875	17084.20703125	19234.080078125	14264.67578125	12383.2578125	14867.6572265625	13256.640625	16762.443359375	15694.8876953125	18141.623046875	17373.416015625	19346.275390625	13312.5556640625	9892.48828125	12638.4599609375	16681.15625	17787.697265625	17493.32421875	25722.78125	12260.52734375	16401.921875	15211.7060546875	16193.380859375	15117.177734375	18253.083984375	15637.5263671875	12374.033203125	15029.6533203125	14993.556640625	21263.19140625	10630.6474609375	22889.642578125	15941.4443359375	15448.8681640625	14475.4814453125	15179.5341796875	20055.177734375	11855.6787109375	11840.947265625	14189.9609375	11816.3544921875	14258.58203125	17500.357421875	18074.46484375	17031.6328125	18835.501953125	13403.15234375	8424.8017578125	11139.712890625	18272.47265625	17624.96484375	17264.841796875	23700.1015625	12890.5458984375	16275.5966796875	14135.4892578125	16096.14453125	14382.5498046875	17044.130859375	15310.0029296875	11327.3046875	14994.1552734375	14782.642578125	18788.513671875	15108.197265625	21836.7109375	15873.5302734375
90	120	6100.81640625	13743.6396484375	26261.263671875	27184.341796875	39950.0	42735.8359375	11559.9638671875	18706.732421875	23728.9375	19246.806640625	9143.751953125	26125.892578125	20968.708984375	99413.5234375	6456.3681640625	12844.5771484375	25375.09765625	29339.0625	39164.92578125	40948.87109375	17016.91796875	21452.806640625	21445.705078125	30458.701171875	21006.033203125	81978.9609375	3597.985107421875	5498.98583984375	25234.416015625	19376.1328125	12996.015625	7054.560546875	39452.04296875	35410.765625	44103.58203125	43142.109375	32595.65625	30897.55859375	35395.6015625	33346.23046875	38592.60546875	40844.8828125	42991.62109375	48538.5546875	42541.05859375	34292.109375	21316.28515625	31958.44921875	42093.61328125	44206.671875	43109.27734375	65752.390625	33357.2734375	43345.85546875	39342.4453125	40095.30078125	35333.12109375	46811.34765625	39200.28515625	34221.16015625	35719.8671875	38942.265625	49487.296875	26661.001953125	54282.88671875	35372.21484375	39170.3046875	33344.44921875	40463.79296875	44830.58203125	26417.046875	29615.962890625	36267.6953125	32560.392578125	38642.26171875	44106.02734375	43844.71875	42273.90625	42955.51953125	34767.90625	23529.517578125	32925.95703125	45395.04296875	41671.48828125	44839.39453125	59540.95703125	36901.828125	37763.74609375	36939.68359375	39634.578125	37794.15234375	43248.70703125	40972.921875	34275.81640625	36485.74609375	37988.06640625	50191.18359375	32001.912109375	57389.796875	30302.8828125
120	150	9751.8994140625	22215.09375	42328.88671875	44962.06640625	64882.96484375	68362.0859375	25781.49609375	27603.38671875	38437.48828125	32385.560546875	17113.322265625	45245.7890625	30713.943359375	93818.7734375	10149.2431640625	20251.798828125	41534.90625	45624.19921875	62865.7421875	65353.2734375	25853.9140625	41725.703125	32800.7109375	63987.76953125	31714.337890625	88645.78125	5247.828125	8060.43505859375	37900.1484375	32676.740234375	15276.15234375	10700.05078125	58570.54296875	57103.0859375	72871.09375	77087.0078125	45294.41796875	48463.39453125	60436.16015625	53990.15625	61791.625	64558.5703125	70813.390625	73231.953125	71272.0703125	56655.22265625	38069.1484375	56358.89453125	68593.6875	69227.40625	72115.125	107328.2109375	60362.0234375	67561.53125	67032.5	66395.8203125	58248.77734375	77780.03125	66755.8515625	60978.41796875	56643.546875	64297.2421875	85496.1328125	43567.9140625	79490.4609375	52748.5625	61276.296875	61794.5234375	67747.4375	74279.8515625	45200.03125	49558.3828125	60636.73046875	53079.9921875	64825.2109375	72373.125	69071.5078125	70217.0625	68766.953125	58240.2578125	34312.4296875	59079.07421875	68810.765625	71447.0703125	73198.7578125	99806.1015625	64006.23828125	64941.33984375	62847.546875	66752.25	55468.0859375	72347.390625	65460.921875	61066.7109375	56185.37109375	62395.74609375	84508.0234375	48747.26171875	94815.1875	49086.3125
150	180	11729.9169921875	27812.693359375	52347.29296875	55511.4609375	83182.3359375	85658.2421875	30703.91796875	35753.30078125	47430.171875	44697.21484375	20312.140625	76805.484375	36127.95703125	122780.5546875	12089.5322265625	25540.82421875	51468.0625	57467.41796875	80785.96875	83832.7890625	30077.896484375	48721.73828125	44219.3046875	56292.98046875	40806.86328125	125703.5390625	5708.171875	9402.833984375	48797.34765625	39179.875	14447.0322265625	12847.9296875	77827.84375	75520.3984375	89543.21875	92675.84375	55749.09765625	60558.984375	75090.8359375	68479.28125	71473.0703125	82508.5703125	86101.0703125	90614.2578125	85713.703125	71106.3515625	51038.01171875	69406.40625	84318.921875	86042.2265625	87635.40625	131372.640625	77916.7421875	80278.375	83475.125	84369.4609375	71008.0546875	98436.0625	82135.09375	80386.90625	71216.7109375	79920.015625	109566.4296875	59271.17578125	97728.578125	63717.3671875	76031.1015625	69250.34375	86177.265625	92643.03125	54921.953125	62837.7578125	78780.5546875	67039.8984375	81498.6796875	92796.8359375	86991.3125	85641.8984375	89359.2109375	73383.8359375	40547.4375	72622.1953125	85865.40625	89735.125	88223.96875	124325.890625	80329.5234375	80794.609375	79758.6875	84268.09375	65933.421875	91802.8828125	83115.4921875	77024.4765625	71197.265625	78450.625	102453.3515625	61584.5859375	117689.78125	59898.4296875
180	240	13491.93359375	30460.25390625	57925.14453125	60600.421875	89582.515625	95122.2734375	32028.77734375	38153.234375	49815.3359375	49113.6953125	17042.2265625	67393.40625	41134.109375	122218.515625	13912.3779296875	27981.833984375	57748.11328125	65246.03515625	90468.9765625	93328.3359375	33114.9375	52978.8203125	48670.703125	77290.3984375	45985.1484375	120871.7109375	5609.5244140625	9798.001953125	54336.44921875	42374.69921875	10382.765625	13634.2587890625	82590.53125	79154.703125	98915.203125	104386.625	61538.16796875	66926.046875	82660.46875	74497.7109375	81765.546875	91531.640625	92461.5703125	97272.625	94999.9609375	79348.6640625	51919.33203125	80182.34375	93242.3984375	93905.2890625	93826.1953125	139281.75	86061.9296875	88339.34375	91854.4765625	90039.1953125	75723.75	107575.0703125	92703.3515625	89485.0234375	75749.1640625	87901.8828125	115092.453125	62102.03125	109328.7734375	66338.8828125	85817.421875	77981.140625	93854.6875	95164.03125	54308.328125	67877.953125	86069.1015625	74074.9453125	85509.5859375	101599.78125	91031.0625	89089.6640625	93065.078125	80670.171875	48430.08203125	81947.03125	93500.140625	95124.1875	100912.6640625	136507.109375	93007.3671875	84382.59375	88105.0234375	92838.3203125	70834.359375	101454.6328125	91724.65625	90210.1953125	76126.265625	84749.3671875	107743.140625	63113.17578125	120784.2578125	62637.6328125
240	300	14133.2412109375	30691.7578125	56786.08984375	60198.76953125	87578.2734375	91594.671875	34904.5546875	39532.40625	48125.4453125	47824.546875	13779.033203125	73302.1875	41349.41015625	95688.671875	14454.931640625	28508.806640625	56312.171875	64317.9765625	89021.6171875	90736.5703125	32511.3046875	49996.9296875	49599.31640625	66011.2734375	43421.8515625	96948.6015625	4963.8359375	9753.5166015625	49057.60546875	42053.9765625	7603.0185546875	13859.0927734375	81004.4140625	72865.59375	96811.4609375	100515.6484375	62254.2109375	66090.2890625	81203.359375	73257.0078125	77577.8046875	88575.65625	89734.2734375	96691.078125	90503.4453125	76422.015625	49384.40625	78704.28125	86183.9765625	88469.6796875	89765.53125	127275.25	86187.953125	80493.7421875	88647.6484375	87747.0546875	75650.4921875	104216.078125	89294.390625	89370.375	75002.8515625	84069.5625	114002.2421875	63293.79296875	99083.203125	66844.4765625	83186.859375	76554.6328125	91067.90625	92847.5234375	50886.421875	68060.9921875	84331.078125	73259.875	79745.0	96820.21875	88087.4609375	87823.9765625	91682.7578125	78843.96875	50133.3203125	81808.0625	87563.5234375	91822.3046875	95412.171875	123817.3046875	91020.796875	83875.8046875	84821.015625	90558.578125	69086.8515625	98675.7265625	89098.5	89356.1875	74834.9453125	83177.890625	99019.90625	62736.08203125	112450.453125	61303.3046875
300	360	15019.2021484375	29607.81640625	53682.17578125	57909.53125	81091.2421875	83873.578125	37341.5078125	38411.10546875	46242.6640625	47681.96875	12310.6708984375	70124.3828125	41224.59375	62095.1875	14954.0693359375	27613.263671875	53404.2734375	61947.66015625	81975.0078125	83829.3828125	34948.796875	51235.94921875	48954.1875	62645.546875	42305.98828125	88824.078125	4177.57373046875	9688.4375	45924.8515625	39187.734375	5816.2060546875	13650.28125	72409.234375	71315.8984375	87820.0859375	90211.8515625	62972.54296875	60811.29296875	75770.984375	68829.53125	72530.7265625	80319.328125	82300.421875	86305.3203125	86867.2890625	73330.5390625	49265.296875	74283.375	81928.7890625	84196.359375	82926.265625	113201.8359375	78422.7578125	73810.015625	81574.1015625	81445.8359375	68454.8671875	95320.7265625	82519.8671875	82152.9765625	69903.703125	76543.0625	104739.7890625	60269.87109375	87286.4921875	63025.98046875	76200.1171875	68871.734375	85339.8671875	84004.203125	51233.9375	64084.67578125	78778.25	69903.5078125	69032.1328125	90540.0546875	82817.546875	80030.7734375	82001.3984375	74176.390625	48631.83984375	76196.1171875	80665.578125	87362.8515625	86184.1953125	109531.6875	85044.28125	76952.40625	78827.328125	82937.2421875	67439.7890625	88868.7734375	83262.4296875	84045.0	70261.90625	78368.78125	97951.0234375	63312.71484375	100689.84375	58974.83984375
360	480	15385.4970703125	29273.103515625	48009.72265625	54341.01953125	71262.5703125	76084.8515625	37062.62890625	35137.765625	41098.6484375	48327.6875	9845.3896484375	63414.96875	39589.84375	43630.953125	15400.763671875	26715.435546875	48439.5	56952.92578125	72706.8359375	74499.734375	37618.44140625	44426.1484375	46426.91796875	59722.98046875	41910.07421875	67173.25	3392.713134765625	9678.3447265625	42164.9609375	37408.9609375	3702.024169921875	13536.6474609375	64944.5078125	62029.06640625	77204.046875	75999.5078125	55415.22265625	54549.046875	66709.9765625	61192.57421875	60120.17578125	70217.015625	71360.3671875	75641.6875	76210.921875	64702.0859375	46819.7890625	65597.9921875	71394.3359375	70741.8203125	72820.421875	93846.828125	69781.5	65388.8046875	72566.5625	70782.4375	63372.2578125	82668.8828125	72482.546875	73740.4375	64278.7578125	68035.875	93748.7421875	56927.92578125	75681.3359375	57341.4375	65822.9609375	64881.9140625	74524.0625	73221.515625	49800.01171875	57354.828125	70691.234375	63153.15625	65293.95703125	78023.3984375	71675.578125	69403.5390625	73183.1484375	66912.1875	45093.171875	68682.84375	71237.8671875	73411.875	75782.1171875	90454.09375	73705.4453125	66431.6796875	69999.7109375	71610.671875	60115.42578125	78958.9296875	72557.7421875	75052.703125	63955.9609375	69119.578125	86732.9375	60486.0703125	75473.7109375	54580.2109375
480	600	16156.3984375	28099.390625	40318.9375	47488.47265625	58741.34375	62640.546875	37582.4375	32613.931640625	35644.671875	41999.890625	7673.837890625	53096.8671875	36993.140625	16975.484375	15987.1728515625	25821.3828125	41138.4609375	50977.75	55314.26171875	62208.0234375	35383.875	37609.1484375	43323.99609375	48961.26953125	39456.83203125	49716.9453125	2759.345458984375	9518.5009765625	34832.6171875	34585.74609375	2218.1376953125	13089.9833984375	53826.6875	54180.13671875	63075.33203125	63122.3671875	48347.765625	47435.58203125	54187.375	52546.8359375	49529.83984375	57912.68359375	59018.265625	63162.4453125	60893.34765625	53539.4296875	40478.59765625	55212.58984375	58537.546875	59802.859375	58633.640625	71400.5546875	57995.4921875	52534.80859375	59005.57421875	58740.69140625	53790.703125	67364.984375	59656.46875	61134.015625	54337.2421875	55419.09765625	75348.9453125	51123.23828125	59590.0	49158.49609375	54955.35546875	52348.3984375	61119.29296875	58999.07421875	45964.59375	48643.7578125	58495.94921875	53630.23828125	54424.76171875	64184.8515625	58518.97265625	56965.9765625	62808.37890625	56013.18359375	40640.22265625	57029.47265625	57295.70703125	60593.20703125	61346.171875	71217.1875	61041.9140625	56249.00390625	57294.66015625	57763.23828125	51115.86328125	63717.625	60325.2109375	61670.8828125	53468.15234375	56673.42578125	68092.890625	52872.3046875	61672.60546875	48595.11328125
600	900	16658.203125	25900.232421875	31175.318359375	38847.89453125	40138.6875	45908.91015625	36281.75390625	28734.234375	27895.41796875	37606.4140625	4287.283203125	41402.6484375	32640.390625	15465.3232421875	16466.625	24850.521484375	31750.685546875	41670.7890625	41130.71484375	45715.953125	33326.01953125	30251.001953125	37662.0703125	42245.890625	33694.265625	28923.63671875	1960.2027587890625	9624.275390625	24566.587890625	29699.658203125	868.0833740234375	12835.6845703125	40256.234375	40892.45703125	45938.98046875	46591.70703125	41287.4140625	38024.4453125	40647.34765625	39615.71875	38123.453125	41737.54296875	44042.91015625	44853.33984375	46330.18359375	41053.39453125	33633.58203125	40522.67578125	42352.5859375	42089.0546875	42897.11328125	49634.13671875	42252.3828125	40873.95703125	44190.00390625	43372.1171875	40386.1015625	49395.0078125	45061.29296875	46233.5625	42160.734375	41503.63671875	54799.06640625	42997.9140625	45257.5703125	41153.671875	40831.55859375	40371.828125	45198.9609375	43723.4453125	37629.76171875	38274.78515625	43359.32421875	41446.3125	39585.2421875	47943.53125	44271.16796875	42700.25390625	48210.90625	42630.26953125	31878.4765625	42277.08984375	42515.44921875	44481.03515625	45511.28125	48531.5625	45314.53515625	40747.28125	42522.69140625	43789.48046875	39304.19921875	47965.91015625	44739.0	46843.6875	40905.61328125	41480.1015625	50397.11328125	43131.46875	44001.0546875	39346.5703125
900	1200	16887.42578125	23526.533203125	22491.56640625	30652.41015625	27340.361328125	31389.958984375	32250.73046875	23925.431640625	20996.125	30163.083984375	1210.8443603515625	27800.82421875	27550.822265625	4231.22216796875	16632.275390625	22604.921875	23159.8515625	31986.06640625	28393.908203125	31301.228515625	31727.74609375	23396.732421875	29643.314453125	28876.8515625	28709.900390625	37496.22265625	1139.4462890625	9808.638671875	18354.2109375	25705.927734375	-190.33468627929688	12531.5244140625	28793.349609375	30418.509765625	33272.0078125	34465.32421875	31738.126953125	29597.763671875	29282.712890625	29654.123046875	28775.99609375	30718.064453125	31475.533203125	32151.001953125	34273.23828125	29434.001953125	24796.169921875	31058.486328125	30757.552734375	29050.87890625	32259.275390625	32352.15234375	30538.37109375	29827.892578125	31395.794921875	30314.080078125	30034.544921875	34901.296875	32355.49609375	33991.18359375	31019.666015625	29815.533203125	39866.40625	35125.91796875	32309.17578125	32512.2421875	29772.4921875	30827.0859375	33691.4609375	32127.83984375	30793.63671875	29343.978515625	31498.06640625	31022.080078125	30278.205078125	35740.921875	32666.73046875	31535.029296875	35053.5703125	31189.962890625	24236.947265625	29824.2265625	31379.13671875	30807.5234375	32878.48828125	33041.54296875	32515.4921875	30196.908203125	30253.3828125	31524.068359375	30940.197265625	34375.90625	32797.48046875	34377.8828125	30145.306640625	29824.900390625	36111.70703125	34299.40625	33302.6796875	31072.765625
1200	1500	16987.548828125	21564.888671875	17261.6484375	24183.841796875	19454.421875	23108.435546875	28709.5078125	20554.318359375	16817.267578125	24798.494140625	1616.126708984375	16584.4140625	23722.146484375	1584.31494140625	16688.44140625	21237.623046875	17919.431640625	24827.697265625	20380.142578125	22858.220703125	26988.57421875	17405.779296875	24284.6796875	19651.21484375	24891.123046875	28828.060546875	1016.465576171875	9795.134765625	14845.0791015625	22364.947265625	214.09658813476562	12364.904296875	24383.916015625	23567.7890625	26506.080078125	25804.34765625	25259.974609375	24169.830078125	22803.8203125	23927.291015625	24532.6484375	24161.0703125	25643.693359375	24917.775390625	27003.470703125	23103.029296875	20815.134765625	24301.791015625	24440.216796875	24135.48046875	24590.8671875	25892.37890625	23643.361328125	21455.35546875	24363.666015625	24736.671875	24024.5234375	27288.294921875	25652.03125	27024.412109375	24486.294921875	23376.00390625	30346.46875	28647.83984375	26563.529296875	26368.533203125	23131.244140625	24864.435546875	26020.28125	26590.494140625	24517.84765625	22799.013671875	24948.625	24895.23046875	24408.388671875	28599.017578125	26470.951171875	25295.0546875	28097.900390625	24515.955078125	20850.986328125	23620.779296875	25014.095703125	24672.9453125	25807.044921875	25067.14453125	24877.9921875	24422.75	23673.595703125	24576.45703125	23482.49609375	27429.578125	25849.205078125	26799.796875	24016.201171875	23321.302734375	27449.232421875	26829.154296875	27583.2109375	26266.552734375
1500	1800	16579.927734375	19869.533203125	13753.6630859375	19834.171875	16026.77734375	17368.029296875	24396.326171875	17294.54296875	13965.0517578125	20250.787109375	833.748291015625	12520.1787109375	20566.794921875	1093.178955078125	16328.859375	19676.841796875	14477.5263671875	20558.4453125	16361.759765625	17757.78125	22471.333984375	15522.326171875	19720.5234375	15717.6650390625	21754.68359375	20909.271484375	660.2676391601562	9851.2666015625	11638.9140625	20123.53515625	83.38607788085938	12134.75390625	18931.15625	19846.3671875	21884.845703125	22288.201171875	20906.33203125	20757.123046875	19405.099609375	20241.771484375	20442.1171875	20146.021484375	22102.642578125	21617.33203125	23555.328125	18829.55859375	15392.875	20039.646484375	20530.560546875	19752.583984375	21409.10546875	21714.62109375	20020.376953125	20493.92578125	20210.3203125	20507.044921875	20326.388671875	21848.634765625	21585.8125	22954.12109375	20272.71875	19661.0625	25313.58203125	23572.912109375	25703.486328125	22139.240234375	19948.771484375	21762.001953125	22229.845703125	21682.951171875	20250.759765625	19951.01953125	20657.98046875	21212.623046875	22113.875	24476.818359375	22542.12109375	22004.552734375	22665.1171875	20158.796875	17688.9296875	20138.232421875	21180.29296875	20990.109375	22027.599609375	21984.8671875	20816.169921875	19981.986328125	19684.97265625	21199.79296875	19028.634765625	22732.626953125	21844.408203125	22739.89453125	19820.759765625	19654.888671875	22183.48046875	21624.041015625	20631.29296875	20739.490234375
1800	2100	15980.9111328125	18137.41015625	11322.240234375	16723.18359375	13304.3154296875	13806.69921875	21301.572265625	15281.884765625	11213.7822265625	16684.72265625	886.5479736328125	9451.912109375	17488.974609375	-2960.284912109375	15661.8681640625	17800.779296875	11895.3125	16589.6171875	12946.3212890625	14716.50390625	19726.236328125	12481.671875	15993.759765625	9691.5	18674.505859375	29458.18359375	422.6803894042969	9697.9404296875	11145.4365234375	18316.130859375	198.6832733154297	11719.046875	17637.28125	17766.583984375	18682.162109375	18822.4375	18221.591796875	18808.263671875	16453.291015625	17388.76953125	19082.236328125	17847.48828125	18449.0078125	18650.587890625	20625.443359375	16317.76953125	14237.177734375	17527.177734375	17895.515625	16717.96875	18345.791015625	19077.55859375	17249.744140625	15641.298828125	17555.232421875	18116.826171875	17924.474609375	18836.076171875	18683.396484375	20085.21484375	17760.541015625	16766.943359375	21192.091796875	21431.21484375	20808.89453125	19277.1875	17851.380859375	17965.2578125	19064.82421875	20249.208984375	17648.73828125	17323.98828125	18160.337890625	18360.69921875	18572.375	21968.724609375	18834.419921875	18998.791015625	20237.08203125	17195.515625	15495.3759765625	17538.474609375	18585.70703125	17757.76171875	19775.263671875	18744.501953125	18124.359375	17698.400390625	16874.19921875	18736.333984375	16953.935546875	19715.78515625	18324.94140625	19711.0546875	17464.7265625	16897.275390625	21409.55859375	19781.10546875	19671.05859375	18585.490234375
2100	2400	15300.201171875	16184.8701171875	9957.439453125	14054.54296875	11654.7626953125	11876.1357421875	17633.869140625	13328.986328125	10150.8642578125	13855.8857421875	1305.507080078125	5325.71630859375	15766.287109375	2314.43115234375	14985.41015625	15732.134765625	10432.5556640625	14219.12890625	10880.619140625	12476.2939453125	17021.39453125	10537.6884765625	14314.984375	6054.35400390625	16864.798828125	16849.015625	77.55076599121094	9701.572265625	8455.6337890625	16669.34375	51.984352111816406	11087.978515625	16819.236328125	15603.8681640625	17278.501953125	17904.220703125	14197.3037109375	18052.958984375	14453.1943359375	15259.208984375	16504.0234375	15950.3095703125	16676.462890625	17640.458984375	19092.22265625	15052.970703125	14330.04296875	16178.681640625	16008.904296875	16973.17578125	16507.2421875	15885.3232421875	14924.935546875	14194.478515625	15467.384765625	16304.107421875	17229.95703125	17093.599609375	16571.3828125	17840.62890625	15224.107421875	14867.533203125	20664.90234375	18776.09375	19724.744140625	18172.384765625	16363.7373046875	15989.3017578125	17279.02734375	17866.482421875	14906.6630859375	15972.4833984375	16306.6044921875	16490.865234375	18685.126953125	19981.23828125	17794.162109375	18723.109375	18310.1796875	15834.916015625	15376.8515625	15649.27734375	17067.505859375	15900.638671875	17695.240234375	17628.30078125	15621.033203125	16536.99609375	14602.63671875	16765.248046875	15611.7763671875	17754.837890625	16362.2841796875	18264.98828125	15853.7294921875	15624.0390625	18311.29296875	17890.419921875	17474.58984375	16746.544921875
2400	2700	14694.5908203125	14627.7294921875	8621.12890625	12599.505859375	9999.92578125	11096.1005859375	13564.2451171875	11819.34375	9179.9296875	12831.53125	1586.0400390625	2943.2177734375	14339.787109375	-4358.47900390625	14228.7568359375	14499.1826171875	9191.9853515625	12375.8486328125	8831.6103515625	11639.392578125	13986.6904296875	9786.1474609375	12069.7109375	3091.7431640625	14670.041015625	24401.6953125	114.02159118652344	9564.03125	8210.73046875	15282.720703125	-46.101322174072266	10790.421875	15123.7666015625	14889.1630859375	14522.1201171875	16591.41015625	12963.681640625	16791.91796875	13048.916015625	15007.2548828125	16362.736328125	14823.267578125	15813.3828125	15807.462890625	17397.7890625	12994.4716796875	12113.884765625	14653.5537109375	15005.8583984375	15390.1142578125	14772.8056640625	16148.2255859375	14013.4423828125	13078.2958984375	14183.919921875	14874.4306640625	15335.1953125	15234.5078125	15027.95703125	16580.826171875	13693.662109375	14097.818359375	16320.68359375	16788.978515625	17591.744140625	16027.6435546875	14545.2529296875	15516.5224609375	15984.884765625	15375.23046875	14040.810546875	15581.380859375	15230.841796875	15785.431640625	16889.9375	19290.52734375	17022.771484375	17071.119140625	17635.115234375	14630.029296875	12250.271484375	15092.078125	15920.9169921875	16168.697265625	16710.861328125	14291.666015625	14668.7275390625	14963.701171875	13843.9267578125	16621.82421875	13079.6513671875	16290.9326171875	15497.0185546875	16282.8408203125	14187.55078125	14583.0546875	16147.25390625	16133.8310546875	17935.068359375	15328.6279296875
