frame_start	frame_end	parasubiculum	HATA	fimbria	hippocampal_fissure	HP_tail	presubiculum-head	presubiculum-body	subiculum-head	subiculum-body	CA1-head	CA1-body	CA3-head	CA3-body	CA4-head	CA4-body	GC-ML-DG-head	GC-ML-DG-body	molecular_layer_HP-head	molecular_layer_HP-body	Lateral-nucleus	Basal-nucleus	Central-nucleus	Medial-nucleus	Cortical-nucleus	Accessory-Basal-nucleus	Corticoamygdaloid-transitio	Anterior-amygdaloid-area-AAA	Paralaminar-nucleus
0	30	25.0641	16.42334	4.13524	5.86135	8.99199	2.77169	6.63074	7.56217	14.7905	13.38307	2.78681	5.58264	4.06691	6.30742	14.54367	4.68378	12.51776	6.85654	8.76929	1.58352	55.40145	20.77821	4.02551	25.10504	15.84824	14.5921	1.00964	141.22749
30	60	1750.4579	2002.65364	1654.9307	1689.66161	2106.19406	1832.36808	2230.56892	2132.4943	1357.73408	1597.13336	805.66538	1341.73693	1182.03923	1468.23015	1252.61107	1618.82207	1299.61139	1722.00103	1408.11175	1125.47564	1185.93311	1182.21305	3525.98315	2111.39935	1290.02564	1852.42803	1387.55949	1490.04362
60	90	8657.6815	8357.7899	10801.11428	8894.7837	8748.29628	8269.64282	9589.36553	8293.04853	9009.05002	8232.0819	7519.17239	10235.44202	8973.01401	7673.35361	9143.21697	8226.89859	9573.25691	8225.31493	9216.10307	7033.99711	8592.22077	7911.5506	11788.16797	8508.79029	8620.97373	8321.61592	7117.51412	9364.92728
90	120	13630.6473	16495.0843	17964.41841	15284.60001	17259.03209	15824.89968	15400.11276	16865.47819	14743.66695	14193.45886	14118.84816	14930.1244	16126.35802	14663.75507	15439.53498	14794.4282	15539.63972	15210.55933	15273.64117	13002.76328	14332.68855	14753.42871	20027.58919	17425.04186	16011.65928	16878.49313	15504.46783	13894.78751
120	150	21081.04822	23391.30267	25641.15325	22353.79484	25082.80152	21926.84361	20061.12774	22966.852	24161.01958	20886.54879	20794.42052	26046.57155	24516.54104	25417.35525	25577.03433	24221.25284	25014.44116	22867.12026	23469.38887	16686.88452	19885.44743	24576.27786	22301.45052	24139.39852	24184.20333	21521.54927	16931.88761	20342.71498
150	180	20842.20924	25995.77015	27188.51932	24820.05058	25165.14819	25254.75417	23868.34402	24252.98201	25648.52711	23669.50168	24488.0135	27651.76247	26378.74637	25581.22092	25845.53963	25348.18725	25862.42255	24185.89521	25218.05792	21572.0875	23018.20454	25750.89653	23923.63607	28065.82787	27092.1009	21689.08217	18575.35497	23430.9893
180	240	24100.52876	21958.90172	27258.70466	25248.44436	26056.96518	26522.30251	22515.18107	24833.22675	26278.17822	22845.62564	24327.78958	26742.12838	26693.83847	25171.11361	27020.5999	24810.47356	26749.06813	24613.12631	25623.65001	22206.02712	23595.30808	25511.6293	21131.04362	25225.80825	25280.74661	20474.3417	21953.14873	21337.50144
240	300	19709.07169	19339.72959	25406.33371	23755.16071	25496.255	23382.04462	23296.86981	24106.43886	25598.65037	21783.31776	23951.06966	24630.61989	24234.80198	24660.82404	26559.82611	23543.31423	26053.27208	23092.69472	25037.9256	20862.86862	22770.55349	23650.61024	24569.78711	24641.69489	25483.66303	20360.65324	18801.7123	21311.06299
300	360	19363.49564	19510.58383	21993.43851	23251.9263	23157.21213	23419.76814	21766.0218	23905.6277	23867.75398	21076.84374	20881.92744	23406.37558	22057.97027	23982.41967	22961.699	23066.54064	22810.98159	23041.94646	22589.2432	21243.89606	21323.51737	23647.96905	20931.19857	23720.18317	23630.25116	19407.84227	22091.50112	20085.61737
360	480	17247.87229	18667.98461	21925.37582	21244.65788	20340.34258	21116.75731	19968.16795	23477.30063	23221.48195	20194.17702	20232.7748	22837.67319	21191.76638	22076.00864	23266.48731	21687.84118	22869.44563	21552.97849	21792.4326	21130.54449	22273.05329	21336.27908	19559.62826	20679.57948	22865.29429	18990.41515	19130.40649	19639.95628
480	600	15386.05117	17338.85838	18528.49443	18503.01601	19058.95277	18253.87979	17529.81422	20824.1105	19547.56238	18085.18394	17859.20536	19050.2622	18255.84307	20168.89772	19337.62011	19234.65413	18953.90925	19315.62939	18614.59682	20282.99691	21275.03035	19678.44525	20047.86914	19614.14929	22883.79427	18385.1885	18280.06031	18320.62942
600	900	13541.9262	13851.51865	16138.09659	16363.2632	14749.5827	16982.37208	14963.6396	17637.51363	17485.27179	15627.35419	15353.93599	15240.5761	15494.25579	16449.67129	16831.94584	16029.12844	16630.49727	16665.12332	16136.27523	17741.61531	17434.84093	16186.79922	15596.31608	16007.97134	16934.28833	13842.49086	14942.39844	16458.88006
900	1200	12280.02735	11550.04544	14276.27478	13720.12555	11687.91568	14243.00066	12947.88356	14626.48045	14445.9263	12974.27261	12741.77655	12731.2424	13451.13174	14156.79343	14119.4325	13649.39705	13970.88526	13942.55219	13556.24495	15088.42798	14520.60046	13046.18192	14511.27279	13291.92294	13658.36675	11873.33884	13367.01722	13703.93757
1200	1500	9413.84885	11773.54475	11796.19446	11262.54872	9728.51592	11554.19488	10734.97659	12670.62293	11732.24011	11104.56574	11614.84079	10812.47941	11321.16502	11475.07578	11505.2428	11330.31117	11545.41463	11717.30842	11495.34784	13019.94875	11546.06736	11502.09844	12656.06022	12417.08343	11497.95954	10776.32974	11785.36044	11037.3242
1500	1800	9151.14123	9549.05045	11474.2588	10134.15174	8844.10054	10519.33208	9279.14723	10824.33141	10666.73653	10017.52594	10680.18185	9914.69604	11204.84142	10514.85355	10588.68901	10441.54335	10590.80945	10518.38431	10422.11165	11265.25728	10234.91311	11405.73012	13343.6556	12290.47049	10604.19902	9484.40604	9192.85859	9987.00886
1800	2100	8536.6282	10395.02024	10712.33467	9448.29326	8185.38278	9879.18561	8972.48022	9748.43759	9723.72414	9393.71184	10020.9077	10236.23505	10485.24929	9799.45363	9664.10613	9648.15495	9754.05215	9614.8832	9703.44312	9846.98765	9660.52398	11019.36984	11358.46777	10937.76626	10614.98686	9542.29287	7358.90859	9728.18374
2100	2400	7526.65017	10273.44507	9910.10324	8322.1828	7575.64524	8524.40795	8210.74382	9460.49056	8311.03173	8800.69025	8739.32956	9306.86787	9733.0764	8423.01659	8787.28034	8732.47435	8753.23984	8828.53406	8725.41686	9394.35148	7851.7503	9927.57973	10010.52767	10862.53728	8998.49513	8398.64318	8278.95298	7899.70417
2400	2700	5845.07289	10836.21796	8716.21652	7011.29146	7668.43848	7389.29433	7009.39235	8011.04067	7466.9049	7409.20433	8316.39108	7877.43039	8763.45213	6980.64837	7749.97057	7228.85667	7840.68017	7344.84476	7836.85527	8295.599	7024.22864	9202.36735	10346.49512	10868.78316	8178.79733	8380.37898	6761.32176	6961.96369
2700	3000	5889.35408	9263.28435	8177.49361	6917.77638	6382.34215	6849.14723	5994.55771	7236.29126	7125.72906	7379.08089	8200.19614	8055.43191	8415.3339	7463.21738	7499.47358	7866.08251	7515.60534	7346.13819	7473.57057	6683.69879	6189.55149	8780.22907	8499.04948	8809.08757	7822.69861	7868.21853	5841.63155	5248.20526
3000	3300	5410.48332	8772.7296	7998.65525	6487.17494	6372.39911	5923.55293	6659.27079	6133.4475	6903.69432	6681.78103	7602.08451	8919.2901	8454.56962	7028.54304	7590.07449	7201.49913	7518.33207	6605.86736	7399.60454	6579.6245	6035.98081	8776.93715	8351.13477	9116.9607	7141.18275	6947.76796	5461.17216	5299.9188
3300	3600	6164.15699	6484.2853	7301.01194	6103.63619	5279.64985	5737.14713	5709.38401	6078.06338	6528.92922	6237.47095	6926.98787	7207.94351	6902.7	6521.22523	6751.17614	6655.02345	6726.19623	6117.09728	6540.24324	6206.09417	5476.8957	6175.53645	6945.81348	6614.74223	5643.0836	6044.93301	5012.01542	5362.35652
3600	3900	5643.47068	7164.92996	6688.73287	5913.98157	6170.53956	5129.91674	5627.92337	5960.80659	6781.53971	6166.12919	7138.71756	7903.23414	7246.87039	6750.82189	6944.64161	6829.58388	6813.87267	6153.00846	6686.23007	5894.25683	4948.26686	7621.44184	7896.06462	8396.90631	5919.53027	5832.4594	4450.72784	4965.79896
3900	4200	4738.03291	6471.53115	5589.20819	4917.09486	5007.92084	4528.56651	4715.89571	5185.96446	4721.41182	5528.2286	5170.26578	6661.95727	5648.55375	5693.49293	4744.46197	5588.43856	4839.32402	5412.35838	4901.6307	5104.4374	4782.12037	6813.34766	6441.33822	6616.33038	6267.79661	6028.26642	5393.90828	4761.49152
4200	4500	5583.83063	6449.50969	5205.54691	4969.82611	4984.9544	4713.49111	5124.82551	4020.58699	4904.05235	4885.0745	5263.32819	7133.5938	5744.96855	4829.34927	5113.06854	4909.60193	5133.22989	4692.47089	5113.10218	4325.06986	5050.55197	6563.95182	5504.80859	6455.75735	5766.46869	5086.09421	3827.37008	5170.78244
4500	4800	3459.39469	6421.88955	6638.17677	4870.27303	5324.69401	4288.45044	5080.12137	4876.02658	5416.08745	4710.92004	5744.63226	5222.04583	6118.73437	4586.05091	6013.76842	4557.87383	6058.05271	4509.03753	5576.32301	3780.81703	4027.12032	5918.22433	5283.47738	6198.05063	5697.22294	6174.55315	3108.67115	3287.55647
4800	5100	3380.20046	6112.30834	5426.11774	3553.42426	4798.40744	3142.93664	3323.53676	4834.81945	4003.80502	4574.65504	5723.84804	4605.88971	5712.47049	3925.69383	4861.0107	4094.61173	4866.62863	4361.01273	4814.88439	4175.82443	4040.70388	4537.46998	5008.50464	5162.59533	4270.53521	4564.0512	3264.06838	3687.70248
5100	5400	5421.40624	5064.64019	5250.56614	3953.21334	3012.0676	4692.44604	4238.70726	4009.85855	4462.4959	4340.04199	4960.62185	3572.3652	5043.55496	3205.19493	4407.49969	3471.74088	4657.10497	4043.92854	4609.88001	4146.70915	4461.92211	4916.29103	3779.7723	5110.63437	4011.48734	4977.86191	3614.23986	3842.68111
5400	5700	3273.02506	3932.18556	6785.08556	4156.40272	5195.92189	3284.15948	3532.71007	3904.90069	4666.81898	4370.42095	6351.49541	5390.32085	6943.91541	5823.64023	6246.20468	5683.64868	5918.15271	4719.15268	5592.24101	3382.4971	3304.88615	4288.83042	5305.51123	5063.99796	3934.43334	3636.04953	4481.75509	2885.05606
5700	6000	3081.22622	4209.91442	5630.20147	3695.94111	3554.81791	3630.43767	4044.77213	4546.11295	4735.57122	4025.99162	4290.69653	3841.91109	5176.63592	2972.7978	5477.30166	3330.25271	5418.66376	3784.17709	4955.37125	3390.08125	3527.48356	5305.17483	6547.27067	6147.17967	5521.14302	4213.51682	3349.98606	3900.3591
6000	6300	3977.17719	6486.64327	5293.78422	4415.74507	5449.99028	3819.25328	4714.47947	2331.85078	4505.21202	3710.24721	5743.04184	4239.20835	5014.0609	4512.61644	4949.14952	4249.24476	4888.4432	3454.26452	5030.27746	3236.56908	2771.3396	2754.28982	3915.88013	4367.85966	3198.10701	4365.03481	3314.8452	2315.32088
6300	6600	3286.20608	4550.19097	3705.33127	3345.94262	3123.29935	3528.06603	3117.07566	3562.903	2682.53218	3182.86611	3206.94254	4095.16674	3652.45236	3415.31267	2924.57923	3495.37887	2983.91606	3385.70937	3079.8228	3663.43334	3227.82266	2746.74849	5852.82682	3998.12432	2696.70116	4078.92479	3384.07474	3629.19714
6600	6900	6082.81948	2839.45241	4674.7313	3985.58338	2642.11539	4067.18031	2326.98517	3975.10452	2775.35229	4674.23473	4044.40892	2377.84228	4330.18603	2275.73155	3546.2925	2962.47313	3680.9675	3965.34421	3396.53433	2083.23666	2912.23772	2290.80949	3717.48267	3099.38026	2982.43436	3801.94898	2954.6112	4891.44814
6900	7200	2644.77124	3302.03703	2086.98886	2932.90252	4022.51616	1861.80452	3074.78464	2319.78063	2398.48178	3264.43168	2022.6253	5477.09087	2404.46803	2993.35095	2267.21387	3066.18026	2312.76358	2556.3925	2520.51165	5405.82949	4232.74485	3551.42654	4692.57316	2920.95526	3367.22764	2932.31335	1487.89455	3921.79991
