frame_start	frame_end	Left-Lateral-Ventricle	Left-Inf-Lat-Vent	Left-Cerebellum-White-Matter	Left-Cerebellum-Cortex	Left-Thalamus	Left-Caudate	Left-Putamen	Left-Pallidum	3rd-Ventricle	4th-Ventricle	Brain-Stem	Left-Hippocampus	Left-Amygdala	CSF	Left-Accumbens-area	Left-VentralDC	Left-vessel	Left-choroid-plexus	Right-Lateral-Ventricle	Right-Inf-Lat-Vent	Right-Cerebellum-White-Matter	Right-Cerebellum-Cortex	Right-Thalamus	Right-Caudate	Right-Putamen	Right-Pallidum	Right-Hippocampus	Right-Amygdala	Right-Accumbens-area	Right-VentralDC	Right-vessel	Right-choroid-plexus	Optic-Chiasm	CC_Posterior	CC_Mid_Posterior	CC_Central	CC_Mid_Anterior	CC_Anterior	ctx-lh-bankssts	ctx-lh-caudalanteriorcingulate	ctx-lh-caudalmiddlefrontal	ctx-lh-cuneus	ctx-lh-entorhinal	ctx-lh-fusiform	ctx-lh-inferiorparietal	ctx-lh-inferiortemporal	ctx-lh-isthmuscingulate	ctx-lh-lateraloccipital	ctx-lh-lateralorbitofrontal	ctx-lh-lingual	ctx-lh-medialorbitofrontal	ctx-lh-middletemporal	ctx-lh-parahippocampal	ctx-lh-paracentral	ctx-lh-parsopercularis	ctx-lh-parsorbitalis	ctx-lh-parstriangularis	ctx-lh-pericalcarine	ctx-lh-postcentral	ctx-lh-posteriorcingulate	ctx-lh-precentral	ctx-lh-precuneus	ctx-lh-rostralanteriorcingulate	ctx-lh-rostralmiddlefrontal	ctx-lh-superiorfrontal	ctx-lh-superiorparietal	ctx-lh-superiortemporal	ctx-lh-supramarginal	ctx-lh-frontalpole	ctx-lh-temporalpole	ctx-lh-transversetemporal	ctx-lh-insula	ctx-rh-bankssts	ctx-rh-caudalanteriorcingulate	ctx-rh-caudalmiddlefrontal	ctx-rh-cuneus	ctx-rh-entorhinal	ctx-rh-fusiform	ctx-rh-inferiorparietal	ctx-rh-inferiortemporal	ctx-rh-isthmuscingulate	ctx-rh-lateraloccipital	ctx-rh-lateralorbitofrontal	ctx-rh-lingual	ctx-rh-medialorbitofrontal	ctx-rh-middletemporal	ctx-rh-parahippocampal	ctx-rh-paracentral	ctx-rh-parsopercularis	ctx-rh-parsorbitalis	ctx-rh-parstriangularis	ctx-rh-pericalcarine	ctx-rh-postcentral	ctx-rh-posteriorcingulate	ctx-rh-precentral	ctx-rh-precuneus	ctx-rh-rostralanteriorcingulate	ctx-rh-rostralmiddlefrontal	ctx-rh-superiorfrontal	ctx-rh-superiorparietal	ctx-rh-superiortemporal	ctx-rh-supramarginal	ctx-rh-frontalpole	ctx-rh-temporalpole	ctx-rh-transversetemporal	ctx-rh-insula	wm-lh-bankssts	wm-lh-caudalanteriorcingulate	wm-lh-caudalmiddlefrontal	wm-lh-cuneus	wm-lh-entorhinal	wm-lh-fusiform	wm-lh-inferiorparietal	wm-lh-inferiortemporal	wm-lh-isthmuscingulate	wm-lh-lateraloccipital	wm-lh-lateralorbitofrontal	wm-lh-lingual	wm-lh-medialorbitofrontal	wm-lh-middletemporal	wm-lh-parahippocampal	wm-lh-paracentral	wm-lh-parsopercularis	wm-lh-parsorbitalis	wm-lh-parstriangularis	wm-lh-pericalcarine	wm-lh-postcentral	wm-lh-posteriorcingulate	wm-lh-precentral	wm-lh-precuneus	wm-lh-rostralanteriorcingulate	wm-lh-rostralmiddlefrontal	wm-lh-superiorfrontal	wm-lh-superiorparietal	wm-lh-superiortemporal	wm-lh-supramarginal	wm-lh-frontalpole	wm-lh-temporalpole	wm-lh-transversetemporal	wm-lh-insula	wm-rh-bankssts	wm-rh-caudalanteriorcingulate	wm-rh-caudalmiddlefrontal	wm-rh-cuneus	wm-rh-entorhinal	wm-rh-fusiform	wm-rh-inferiorparietal	wm-rh-inferiortemporal	wm-rh-isthmuscingulate	wm-rh-lateraloccipital	wm-rh-lateralorbitofrontal	wm-rh-lingual	wm-rh-medialorbitofrontal	wm-rh-middletemporal	wm-rh-parahippocampal	wm-rh-paracentral	wm-rh-parsopercularis	wm-rh-parsorbitalis	wm-rh-parstriangularis	wm-rh-pericalcarine	wm-rh-postcentral	wm-rh-posteriorcingulate	wm-rh-precentral	wm-rh-precuneus	wm-rh-rostralanteriorcingulate	wm-rh-rostralmiddlefrontal	wm-rh-superiorfrontal	wm-rh-superiorparietal	wm-rh-superiortemporal	wm-rh-supramarginal	wm-rh-frontalpole	wm-rh-temporalpole	wm-rh-transversetemporal	wm-rh-insula	Left-UnsegmentedWhiteMatter	Right-UnsegmentedWhiteMatter
0	30	1.85503	11.61491	17.76156	7.17304	5.71681	3.75278	4.50585	1.01519	0.90923	12.47465	9.67533	8.43921	2.31634	7.93772	3.92919	0.42532	0.69152	3.29078	8.1465	3.20367	17.27637	9.57875	7.70771	8.5646	23.47699	5.30349	9.13766	26.70766	5.03356	1.87107	6.29554	13.48058	0.95941	2.44917	0.61683	14.59465	4.99628	7.05537	8.27652	2.3882	4.69289	7.08075	2.31501	12.42187	5.51736	8.56014	7.8267	4.56522	3.73237	8.77496	7.68832	4.70294	6.89854	2.39885	4.22715	3.74098	3.68661	1.07547	3.94582	7.38178	4.42589	2.29891	1.38452	7.50103	5.27454	6.91092	10.3289	6.1728	10.20761	0.17685	3.90635	4.63434	16.70313	0.58243	7.93754	1.77083	12.61293	10.38502	8.24209	22.82441	8.08124	1.94481	9.04112	3.08691	5.3671	9.34319	2.40238	3.30849	31.28365	2.20382	13.61483	2.04179	19.7572	3.24813	5.62835	4.09403	1.34047	6.88925	4.05355	4.87547	15.33778	6.12889	7.35128	14.15733	14.81414	14.43827	4.08183	6.15597	7.24857	9.89031	3.24799	14.92639	3.73506	12.56036	2.24108	3.49585	4.48465	4.74534	3.03578	8.93509	3.89363	4.22262	9.95584	2.29396	1.93047	1.4024	2.69173	7.96195	7.43167	2.10542	2.69261	8.50555	8.7113	4.37786	7.0015	6.8427	8.92981	0.146	7.46738	3.89789	15.99751	2.31688	4.21054	2.59903	11.34631	4.99493	6.44865	14.42871	4.4007	3.15784	13.05003	2.88735	9.34198	5.27107	3.25324	3.17201	15.46041	0.83198	6.3326	1.87537	13.92759	1.22323	7.42	5.0576	6.97517	6.07806	3.99558	4.07715	11.6211	4.27003	2.74951	13.04308	14.43731	10.63796	3.33171	7.47447
30	60	1370.34621	1360.48397	1626.39935	2002.18028	2010.91063	1846.28691	2378.59429	2230.29294	1737.69387	1338.6867	1713.06001	2334.06042	1707.15082	2127.50685	2101.70374	2199.28839	3742.98706	2194.13582	1306.28199	1136.28256	1518.89978	1813.04414	2136.60041	1664.8895	2121.20431	2011.38964	1674.71268	1320.07149	3129.49718	2414.91233	3112.85046	1911.58352	2055.88022	920.75835	1359.55982	1186.44166	554.10145	2315.99819	1885.25834	2605.64583	1995.19443	2402.86028	2951.1656	1759.34362	2119.25457	1787.98069	1844.43333	1907.03053	1867.51247	2071.08962	2233.69344	1960.90848	1630.34831	2312.44554	2632.46176	1489.05849	2085.87845	2532.13222	2230.13341	2548.03925	2248.59232	2345.52892	2388.48341	2196.51053	2171.47819	2078.46729	2227.53819	2624.53588	1452.51032	1134.90622	2914.11591	3033.83007	2572.18952	2119.34414	2369.86621	2530.94116	2402.82279	1649.43348	2226.49401	1646.26056	2008.19379	2068.62582	1784.18337	1902.35825	2132.07166	1784.97158	1859.67848	2037.65388	2767.33873	1514.16908	2278.241	2157.48854	2308.56024	2108.73773	2182.52436	2185.64783	2540.15956	2130.0782	2338.91197	2092.86295	2076.83276	2789.36571	1335.1948	1633.47156	2933.82874	2879.50164	1180.82362	1337.47129	1452.81638	2072.54711	1795.57455	1517.80576	1387.45742	1874.04703	1167.74458	1711.97269	2023.8006	1991.97276	1986.29973	1751.19144	1760.18699	1743.72339	2356.53232	2369.44982	1777.10122	2062.09216	1942.76955	1288.64683	1774.35561	1660.12482	2253.64929	1891.87793	1833.73484	1487.44019	1752.38092	1846.00098	2574.43906	1167.00711	2716.67743	2241.15461	1554.89279	1063.95909	1695.4991	2292.98069	1849.6917	1540.68505	1555.90204	1611.56301	1368.66777	1709.41998	2134.22926	1822.27628	2054.06401	1760.90556	1578.06696	1387.838	2668.89819	2062.03005	2058.18306	1808.05845	1920.77626	1038.82221	1697.22394	1535.50369	1955.2048	1824.4077	1740.26034	1504.52683	1836.80102	2237.47735	2249.99309	1977.68777	2234.12698	2090.61346	1133.49258	1194.41206
60	90	6743.99416	8264.95306	8061.74665	10338.46506	10258.9	10191.5392	12200.53914	9729.37407	7887.98554	7067.19645	7758.47602	9517.63177	8007.72657	11998.99308	10193.09316	8747.15108	9434.41125	11186.49353	7492.29908	8109.71258	7898.66683	9995.71702	10069.97661	10439.91438	11727.10219	10490.62314	8718.39763	7893.59186	10531.43273	8647.26286	9420.3501	9475.01356	6620.41473	3472.04126	5440.11071	4467.00283	2438.25332	7787.47039	9500.12412	11396.80799	10626.29129	13490.57438	8596.46497	9319.14873	10526.87136	9138.86803	9592.55208	9927.44159	8639.17318	10980.44009	9518.33535	10062.81581	7451.25803	11052.89087	11631.62903	6948.08648	10531.52801	13061.86972	10305.41629	10095.33385	10495.53608	11668.57655	11769.95871	10537.88035	10545.29165	9960.62116	9989.24568	11588.67497	6067.41728	6121.42744	13300.293	11313.97756	10624.62833	8385.27824	10923.15014	12987.35855	9174.9264	8488.60372	11013.57081	8289.87489	9497.55437	10877.23527	7821.75912	10939.94903	9716.25336	8991.03265	8876.62579	9867.45302	11825.471	7544.18835	11317.88321	12985.8234	10596.95544	8684.23417	10359.38435	11111.20815	11644.21769	10532.72593	10848.18547	10399.40261	9810.9618	11615.9274	6280.66968	7378.95321	11935.46829	11071.03289	6243.79785	6455.31218	7334.27146	12288.61046	8523.575	8015.50023	6934.0055	8767.09207	6306.81139	8654.00971	10017.74525	10155.20559	9449.45229	8621.27961	8114.13755	8392.49927	11698.81707	10559.9063	8355.80729	10781.97709	9444.03142	5074.77834	8104.12245	8356.97007	9713.65563	8638.52919	8733.07913	7281.20294	8362.74816	8802.78665	10501.1475	8181.80889	11704.39446	9235.23633	6804.80272	4602.64091	8007.17805	11985.48065	8712.72979	8239.12285	8197.41879	8673.15019	5950.12968	8858.37572	10444.57547	10259.39554	9156.98505	9002.87785	8725.64027	6894.8163	11397.68495	10986.48858	9963.44999	10140.80757	9518.71997	4584.09952	7973.14274	7533.98814	8038.5766	8881.13865	8075.7431	7912.23503	9138.37567	9152.8731	9948.54018	9123.66406	8772.9778	8737.92179	5331.62871	5494.38908
90	120	11965.86865	15051.37475	15535.0842	19363.10249	19289.6068	19184.1306	22352.9635	17448.97782	16520.84154	12206.97006	13815.70443	16358.89789	15644.56922	22065.58997	18073.1177	14595.22936	19860.79053	19725.4555	13371.74034	13438.45216	14620.50639	18691.33473	19413.12447	19545.21949	20883.89589	18238.58995	15501.90315	14411.7518	19678.75658	15659.54695	14860.32104	17903.43272	9898.33619	7695.83157	11903.32868	7893.4599	5523.88393	13449.41846	18791.57178	20024.58855	19148.87304	24792.03287	15000.79515	17395.14286	19108.57425	16683.34165	16632.7334	18770.34348	15140.8016	20308.09437	17183.3128	17962.54584	14266.94466	18952.91247	21121.54335	12800.67747	20247.96097	24898.96333	19068.85168	18699.48373	19183.91186	22245.51592	22298.53987	19185.60267	19579.09392	18321.81936	18915.49477	20726.25762	11223.90133	11256.52134	23623.88426	19901.81742	19738.96827	15767.04852	20231.33821	23503.23619	15784.4327	15753.72429	20754.67202	14700.43006	17949.53023	19961.89899	14135.36479	20488.94434	17611.14384	16487.25994	14715.61804	17591.02824	20756.44521	13228.23149	20901.31309	22930.7404	19561.27306	17029.94257	19311.01241	20472.00118	20902.3573	19393.93289	20194.2857	18896.82536	17813.23383	21471.10532	11543.94132	12968.64993	21561.35985	19928.24187	12606.26153	11483.33823	13309.66806	22471.22289	16742.77055	15362.29456	12582.37668	16151.60792	11601.33718	16302.1154	18606.66101	19040.71356	17235.44039	16191.30466	15151.41429	14740.71616	21161.62159	19309.0186	15859.18802	21186.00472	17340.78297	9518.25375	15264.93747	15851.59035	19427.20604	15842.80647	16318.60639	13562.53757	15707.14241	15889.31484	20920.13708	15060.62499	22341.488	17144.09913	12415.57652	8848.58674	14776.72386	21197.87861	17193.93102	15415.4725	15027.13845	16114.03576	10969.73607	16672.05101	18791.6661	19859.72541	17390.43435	16617.16858	15446.68056	12353.28563	19837.2495	20086.18686	18812.44102	18016.03536	17167.3923	9692.12891	15279.28898	14093.17334	15011.15543	16414.75656	15049.11366	14335.72613	16509.97883	17500.61784	19406.63673	16513.31763	16676.00736	16325.68195	10007.89183	10164.01908
120	150	16251.11481	20405.49309	21781.54377	27020.81906	27121.97087	25720.46293	31296.19859	24950.51342	22112.15171	16960.21821	18934.94309	22103.3769	19828.2914	30040.21221	23063.71345	18633.74527	27171.20093	27796.7902	18749.90747	20816.81201	20904.66266	26241.52287	27158.48545	27603.87518	30755.26121	25012.05955	23025.10206	19707.84374	24633.96827	19225.11723	22065.25098	26055.75474	11231.44613	9086.98485	14774.90644	9830.40382	8126.44148	18236.73977	25902.20603	26115.71788	26973.81365	34466.92157	19882.11666	23820.17526	26831.67125	23182.57196	23068.56683	26648.95022	20624.72089	29101.78021	23153.898	25361.3858	18386.42427	26476.22321	29327.16704	17585.82178	27734.77093	34118.79183	26904.63057	25857.83456	26626.23709	31183.79154	30812.72003	26926.75143	27262.25631	26192.65822	25471.68368	28756.13984	15225.42527	15820.59602	32808.31997	26511.20266	27989.81414	21171.81677	28215.98674	33208.65119	19656.72567	22209.37335	28611.60165	21168.33188	23915.01001	28091.77941	18379.46345	27314.05763	23911.33257	23149.4743	19961.36488	23311.64422	28498.76876	18613.94896	28919.69985	32441.92247	27174.63783	23516.55173	26451.20141	28663.75214	29930.9033	26929.03122	27394.67004	26473.78129	24727.6777	29202.95499	15854.25585	18658.49458	32083.83979	26142.23509	17631.36339	15319.76652	18950.41563	31273.08887	22845.58946	21913.16516	17936.68915	23072.97479	15137.05096	22739.57202	25854.46812	28158.98965	23368.21963	22640.52667	20303.88075	20987.6512	28872.41903	26578.82416	22206.67567	29476.50013	24971.61558	12810.80064	21076.57629	22073.65937	24979.13202	22354.9483	22264.57971	19477.38327	21816.63208	22604.73816	27298.79854	21214.78291	30987.54302	23243.46001	18184.14453	12617.92023	20550.92945	30184.52198	22525.28918	22427.3764	21236.28049	22568.90058	14990.84675	23718.80217	24458.58628	26486.41492	23364.99578	24169.06455	21050.95936	16708.11127	28153.32993	27008.05527	26014.98035	26216.20156	24428.59007	13056.43926	20250.20585	19660.40785	21211.69103	22993.59332	20287.06466	19837.39076	23317.85634	23814.45599	26104.25399	24121.66855	24800.88495	22812.78144	13686.60567	14504.44301
150	180	17634.67282	23624.9234	23905.92234	29361.71139	29680.9241	29123.60161	34872.54783	28579.34517	23666.53351	19395.39382	19491.50687	24340.93224	23429.13256	30673.6244	26388.2085	19254.10818	26228.15894	27564.53534	19895.39854	23997.55745	23359.86227	28766.42947	29723.39544	30271.37339	31412.90154	26509.2034	24824.36645	22753.11789	25492.90411	19540.42148	22509.27588	28159.54869	8260.71958	10058.20125	15147.74763	10386.61314	9124.92903	17603.19707	28545.85769	28763.38549	28636.72165	38534.14792	20306.03544	26857.95942	29715.5178	25717.08226	23333.44734	29548.74885	21608.58957	31235.65494	24445.48896	27774.00903	21022.07358	29122.49721	31891.37441	18787.2713	29727.14218	38108.90925	29152.41255	27631.50689	28824.73126	33723.52455	32358.19844	29124.07215	29196.05218	28989.87146	27464.71339	31640.90313	15239.74464	17947.35836	35378.18325	27544.46291	30042.15674	21861.07037	30433.79023	37024.29945	20847.65713	23850.65029	31442.83328	23136.22649	24308.38019	30366.49364	20139.03086	30054.81439	25757.55983	24938.29693	21237.25333	26426.91838	30990.93549	19327.76294	30851.29921	35033.26958	29280.78489	25429.55556	28886.77386	31316.00832	33698.52458	29236.57366	30099.73021	28249.92658	26464.74886	31574.84295	16669.81857	20228.14592	33368.12522	28431.4655	19499.49745	16438.56225	19781.38135	35193.9579	26273.29389	25132.02015	19958.2442	25865.97227	16603.91352	25227.03407	28559.16561	30016.75048	25838.67999	25789.52354	22448.56241	23243.43491	31536.64064	28906.18087	23904.87137	31549.40401	27209.22434	14088.56228	23362.81842	24316.09667	26443.18171	24829.46664	24366.90798	21767.49353	23949.90314	25003.04477	29009.15345	25949.40821	33782.48683	25278.66788	19246.15261	12696.38594	22694.56326	34642.90669	25924.00554	24409.50233	23369.42892	25060.13967	15425.64159	26000.54466	27418.89123	29536.22447	25449.80536	25920.37426	24370.56972	18533.2141	31007.30582	27918.87258	27836.85881	28320.72017	26717.3952	14055.56421	22242.3789	21708.67128	23459.21502	24810.31942	22653.85692	21431.14738	25449.63936	25854.82514	27599.23464	27565.96636	26886.38458	25262.90298	15066.68613	15786.47283
180	240	16428.17078	21789.06828	24448.7425	29943.15833	29817.80729	29197.85018	33989.86564	27972.93949	22649.08682	18264.77742	20394.44436	23458.11257	23853.00417	31016.9252	25175.54065	19566.54688	23600.78052	27340.30022	19242.83651	23309.27668	22850.64192	29250.62488	29638.13103	29553.08594	33130.337	27850.66065	24797.41362	22781.7925	26348.51401	19470.28555	20927.51221	27766.40415	7083.44561	9545.51183	14012.11105	10389.34672	8329.00066	16434.7428	28913.4766	27809.72302	29064.05208	37358.96612	19793.99668	26560.29056	29865.95932	25705.24508	23457.07221	29699.54731	21340.28275	31683.77739	24442.9554	27823.63348	20123.52043	28759.84821	30658.79999	18447.85669	29820.9844	37227.75485	29093.39194	27603.16016	28449.53523	33506.90897	32731.69711	28750.45537	29083.37887	28576.76837	27811.60395	31301.88876	16272.84385	17404.75209	34436.27651	27307.8699	29735.59398	22398.65866	29772.49224	36521.37901	21112.83123	24036.52133	31022.58134	23155.83836	23967.69922	30710.15473	19981.10641	29677.12988	24989.40395	25237.83957	21525.24776	26381.32487	29963.25258	20288.57416	30551.07544	34629.99763	29410.36702	25343.05392	28122.43326	30769.94397	31229.56814	28589.65387	29559.5807	28740.82591	26204.58666	31138.31944	16991.30071	19938.70644	30645.40368	27998.27404	19592.61683	16185.95361	20619.21959	34137.51876	25503.87984	24393.38006	20238.99187	25962.90973	16336.82667	25820.34969	27729.20196	30298.4646	25605.17073	26167.72483	21764.25702	22184.87066	29943.53207	27833.95791	23636.12981	31265.25278	27330.18609	14247.75203	22691.39769	24310.02381	26996.29823	24257.55395	24429.90905	21585.86408	24134.95221	24485.92033	29732.71689	24748.5736	32773.09816	25328.17498	19321.10016	13300.68041	22045.84243	33926.37338	27243.57905	24445.05133	22877.06295	25309.22084	15155.26963	26484.30397	26974.63109	28940.36747	25291.08184	26416.93796	24276.04955	19485.78728	30240.45351	28286.41624	28427.95628	27938.74835	26652.15909	13931.67719	22308.78104	21507.16435	21962.63448	24543.38885	22593.82352	21803.33708	25187.30761	25524.46739	28245.80585	26587.01689	25025.47723	25031.26114	14950.65395	15750.47736
240	300	15820.154	21645.13222	23894.1513	28846.49392	29155.97888	28747.91545	33183.64702	26926.58737	22350.46758	16710.82361	19801.35356	22457.5754	22496.02022	29462.11308	25469.64203	18601.46854	22302.82983	25677.68072	18024.57595	21145.644	22613.93913	27924.75895	30126.47397	28666.01915	32573.38381	26976.73208	23769.57128	21869.15006	25511.08536	18962.31961	21551.27441	26288.05693	7111.21129	9600.28264	12679.67771	10146.47142	8360.84909	17119.51843	28508.43707	26438.30221	27464.91809	35367.30494	19284.27825	25810.35684	28533.41847	24700.93817	22235.88306	27424.91934	20824.64301	29727.51918	23890.25943	26986.98567	19997.38951	27351.66843	29327.01399	18291.60683	28245.47625	35102.79566	27364.81456	25339.53852	26817.26508	31823.50514	30391.69953	27315.26277	27314.3632	27122.43429	26612.31179	29579.48846	14715.62345	18164.42062	32850.83579	26063.91136	28373.39301	21400.91873	28294.01518	34283.7885	20451.26011	23134.73414	29897.22929	22336.01709	24296.90067	29145.05577	18921.74997	28203.43102	23920.43493	24453.08512	21214.09825	24582.05728	28682.15287	19683.42543	28808.48462	32861.117	28329.38616	24663.99923	26822.41693	29388.88966	30302.5916	27313.63905	28136.57242	27558.70793	25884.74243	29092.15289	17235.01101	19109.93638	30544.7908	26991.27135	19278.61977	16356.99704	19867.65344	32397.86279	25517.52835	23989.23562	19636.76185	25738.80176	15749.72197	24166.97672	26573.74342	28788.92039	24907.356	25663.47928	21706.45442	21502.77266	29632.66021	27522.92331	23325.92958	29676.3135	25628.12357	12924.6186	21822.79884	23293.89727	25500.57102	23319.19784	23415.041	20638.97268	23171.27644	23732.13358	27035.32523	25486.0908	31055.7332	24306.44149	19002.3309	13512.45056	21780.14014	32208.33725	25700.75359	23622.39437	22337.56745	24741.22604	16276.77411	25351.56889	26571.82158	27575.95746	24348.87998	25626.57286	24116.15748	17916.54791	28232.72977	27346.41717	26163.35817	27043.01228	25740.32654	13954.5566	21225.20696	21046.9303	22040.60189	23616.47068	21839.31642	21232.12072	24717.46736	24245.11646	27579.49713	25307.48219	24897.23567	24467.7383	14775.15719	15662.67792
300	360	13851.60354	19572.12905	22443.64313	27454.08031	28694.63896	26505.86154	31848.35355	26426.17451	22018.05095	16095.9872	19477.42739	22437.49229	22584.08691	27057.43383	24849.32038	18538.41003	23974.02563	23178.70291	16250.03779	20384.22294	21781.06254	26795.90448	28928.53406	27628.27263	30344.26948	25267.03129	22315.88868	21351.86084	24207.34829	18618.15682	21590.78809	24177.96162	6223.85365	9169.09576	11003.50601	9813.93525	8219.98201	14846.50286	27405.08367	25344.50767	25675.27626	32671.12848	19124.05819	24451.97287	26520.39013	23582.65714	21253.64718	26182.49541	19827.71032	27469.03266	21681.48095	25488.6036	19830.71766	25776.71561	27085.65791	17948.04714	26595.10982	32876.95936	25364.46368	25288.75897	25715.08149	29439.32337	29023.55034	25743.23363	25734.72782	25924.3785	25332.39263	27467.94228	15432.40354	17744.1133	29492.03137	24900.15312	27241.56958	21427.77476	26461.13727	31510.56463	18546.149	22768.17235	28174.11065	21793.79642	22080.9442	27415.01182	18493.06942	26651.56488	22144.91696	23469.78741	19476.74064	23663.00508	26358.63189	18971.80699	27157.93897	30952.32652	25599.44937	23474.43893	25165.66853	27558.51194	27523.38457	25541.84609	26032.16034	25407.29072	24275.76842	26769.88244	16951.72906	19653.72505	28898.94419	25732.45842	18948.69287	15664.70315	18504.30359	30156.26616	24723.7046	22215.35487	18561.39438	24194.50074	15169.86099	22884.21149	25051.05842	26299.08509	23482.45489	24215.07015	20594.39583	20568.13513	26752.06079	25854.53715	21929.94122	27326.09545	24089.78805	13192.65472	21053.96672	21826.57351	24298.99113	22131.75309	22108.86405	20199.72713	22466.48375	22008.24728	26755.02786	23883.03622	27996.11966	23339.71699	18019.55525	13687.13167	20610.75422	29804.37168	24099.71503	22980.98676	21272.23276	22977.30773	14333.48066	23777.49014	24029.51353	26065.04948	22364.89665	23933.8028	22209.92578	17653.66673	26381.28166	25700.16642	24909.45813	25756.72358	23227.80379	13276.17094	20112.60215	20127.40231	20038.30539	22537.67372	20577.77053	20164.01706	23135.2797	22393.46174	26153.07747	24717.86586	22920.41376	23430.12564	14256.64156	15089.56551
360	480	12192.8794	18095.28232	21733.90987	25304.39927	27034.29578	24734.45745	29991.92602	24802.67804	20307.52784	13889.65265	18512.08876	21159.62353	20506.70522	23371.99258	23252.82461	18098.58951	21892.42896	20746.38213	13680.09887	19193.35516	20252.70158	24793.13373	27587.12653	26119.94361	28648.30978	25097.50818	21096.57009	21102.34618	23054.43545	18006.88386	20060.63525	20370.35663	6199.91209	9298.75729	9340.60631	8722.33872	8104.11305	14434.15938	25034.81475	22554.99626	23844.12997	28457.56338	18466.53973	22902.21286	24185.18209	21997.37509	20336.12714	23426.00771	19245.11442	25096.54088	20550.01749	23841.72883	18024.05964	22662.01035	24472.21455	17824.45784	23751.68131	28049.40168	22869.51775	22920.86208	23147.05612	26624.45769	25398.18888	23472.47654	23283.25908	23218.45709	23340.13957	24628.29468	14877.41808	17318.14012	26685.02874	22911.60641	24404.41039	19766.42635	23607.93265	27427.36631	18475.14219	21001.85378	25522.73988	20455.69018	21030.0444	24818.77829	17740.45804	23987.52063	20902.36926	22002.85523	19106.00484	21088.13464	23071.47118	18349.96453	24520.07371	26897.92326	23416.24428	22216.07453	22771.2438	24757.89033	25209.73687	23141.87533	23513.51168	23215.52682	22538.33297	24418.22367	16137.82648	18604.50045	24998.23229	23433.06713	17588.0567	14900.18464	17770.77098	26280.57916	23625.17492	20882.90424	17596.9664	22158.38178	14820.4163	20959.11925	22815.46404	23968.35021	21464.10666	22623.9954	19818.93057	18733.88682	23719.90058	23565.06017	20031.39149	23790.7381	21702.66068	13065.77131	19301.51045	20300.36756	21521.73267	20712.68029	20568.95414	18806.04282	21048.06461	20528.6911	24812.0489	22576.4572	26056.52189	21740.96725	17065.03415	12611.34825	18476.34904	26172.73859	23504.89871	21059.70012	19853.90403	21195.79702	14138.88244	22003.36218	22096.72262	23410.88363	20726.88011	22044.69831	21419.12309	16545.94378	22620.79934	23601.92568	22662.76554	22826.97541	21699.13835	13528.47412	18805.6311	18634.59655	19006.76492	20454.62164	19267.43046	19073.69802	21321.19856	20599.99859	24012.2158	22803.34934	21283.55481	21624.11626	13718.99628	14441.0006
480	600	9795.98897	16605.63253	19686.85308	22436.74889	24466.42691	21479.64573	26508.88546	23383.05256	17618.16626	12053.30598	17436.38451	18194.44895	19832.42289	19506.61495	22170.11508	17215.11883	20324.11792	16237.93697	11272.89864	17864.13325	18913.65002	21723.86653	25815.11445	22968.44956	25840.05742	22536.57624	18686.09936	20358.88167	20682.97062	16730.9884	17130.13428	17304.47256	5574.10572	9146.7871	8532.65962	8238.66087	7618.86002	12138.94108	21886.60479	19716.96071	20613.1933	24109.35016	16924.83375	20241.56774	20855.92183	19775.40921	17686.56965	19576.01411	17565.69077	21403.62975	18575.34873	20762.29068	16829.58634	19649.79592	20975.60943	16396.12519	20732.97896	23247.96984	19739.08258	20374.99592	19857.27179	22802.15779	22591.25961	20212.89982	19947.06486	20123.99104	20501.26547	21096.13397	13683.18586	16369.19787	23238.17198	20091.9479	21490.1679	18003.05266	20120.90207	22454.76658	17233.019	19159.3807	21955.05296	18609.89466	18501.97021	20952.04948	16275.14082	19771.01129	18949.33434	19347.72136	17428.27985	18346.23622	20020.94358	16660.97261	21446.88957	22081.98084	19564.23512	19988.59171	19557.2101	21032.85794	21316.83904	20057.82086	20219.36219	19683.38848	19789.58303	20664.58438	15125.55533	17679.77301	21108.03684	20554.82138	16249.23926	13851.13613	16265.32896	22330.50687	20899.4282	18439.27608	16276.31327	19747.9184	13411.32365	18018.86137	19689.011	20534.48291	18755.43344	20118.84289	17863.41296	16511.99791	20218.29875	21046.36699	18139.81914	20260.2147	19068.00907	12426.23212	17351.15227	18173.38083	19309.9937	18093.88487	17977.03773	17048.44461	18857.62619	17987.1207	21184.27637	20696.85358	22971.27481	19600.38745	15485.52369	12409.10847	16918.65234	21728.93598	21027.70328	18959.13867	17863.02325	19067.12332	13201.78661	18959.87616	19101.33622	19524.45643	18676.88781	19308.64672	19290.05538	15378.41373	19330.97983	20536.31598	19766.54235	19489.73073	18576.58492	12701.40341	16713.8219	16882.28909	16707.31738	18121.34413	17274.45149	17223.85605	18929.49418	17982.21993	20920.5262	20714.35968	18884.63157	19257.83178	12905.36266	13515.13951
600	900	7669.47847	14048.66692	17866.29664	17860.43552	20770.83856	16923.29384	22299.12289	19923.34325	15228.10513	9481.57286	15299.86553	16055.14337	17824.81969	14857.16709	17970.05369	16215.41285	18355.57812	11796.27119	8726.8512	14818.52961	16794.45471	17737.41048	21374.28764	17919.35347	21010.29169	20006.98298	15749.95479	16782.41777	18162.1801	16149.66332	16908.68604	12952.90442	5575.77367	9664.97136	7347.19357	7695.50877	7342.50429	11561.36907	17566.17871	16505.14858	17239.91346	18267.612	14817.96073	16989.84804	16657.36807	16913.80174	15035.5751	15812.75395	15348.25933	17055.59716	15788.17011	17120.53181	14391.67011	15274.61034	16925.41709	14487.22744	16770.32652	17496.42555	15602.62096	16775.87531	16139.79179	17688.9535	17593.39738	16506.36433	15998.06584	15816.42412	16849.24121	16791.44787	13496.30651	15423.23582	18357.01656	17047.6297	17437.72462	15403.34027	16164.34553	17175.53227	15019.78042	16090.51415	17315.61597	15721.67631	15435.221	16976.62585	14367.26165	16456.09649	15937.78818	16235.18635	14539.69166	14813.59696	16156.70151	14588.61307	16887.14573	17492.3313	15651.6299	16280.5112	15796.45048	16683.01539	17046.98188	16359.36695	16169.59002	15750.61085	16357.63685	16284.48683	13828.69081	15715.89407	17588.55878	17298.86998	14371.11119	13006.99026	14628.11473	17361.64851	18010.4109	15646.64447	14356.58582	16726.96753	12482.17292	15283.40765	16296.13022	16445.51366	15733.825	16900.46126	15615.12402	13812.23641	16660.50478	17213.13855	15685.19754	15644.22757	15527.39802	12133.65206	14861.04279	15430.9333	15671.40712	15535.92792	15444.45663	14685.66893	16200.84869	15465.30334	18258.08444	18195.59248	18089.85495	17035.95537	13715.18175	11399.11133	14835.53515	17274.68644	18185.85076	15844.2211	15308.94275	16027.49481	12116.99236	15961.48775	16065.17395	16157.55912	15264.03787	16326.77889	16340.1636	13311.8951	15937.05073	16813.82621	16105.99834	15975.8968	15227.86751	11755.39992	14337.6979	14483.69484	14371.75067	15458.71038	14870.47879	14753.72559	15935.27005	15069.16711	16874.47427	17952.10341	15772.20939	16697.61556	11883.57107	12370.75304
900	1200	6193.02788	12385.14978	15654.97528	13751.07648	16605.52103	12795.66443	17324.54671	17627.99612	12537.16613	7990.6427	13687.09386	13049.84613	14866.70621	10434.02732	14985.24672	14949.61512	16307.302	8529.14496	6816.01051	12231.75324	14975.48864	13775.33133	17066.99036	13525.07776	16649.14241	17465.89896	13164.41335	14166.6592	15137.1518	14490.92288	14464.63452	9075.9242	5941.22557	10293.5656	7553.21941	8075.98307	8110.43273	10042.64271	14415.24613	12996.45925	13368.86798	14319.96402	12686.14011	13894.63607	12791.09734	13800.46389	12348.75547	12458.40047	12895.09852	13681.25379	12950.45186	13721.21667	11797.66133	12070.38735	13102.40405	12042.76912	13060.33438	13701.05903	12170.42225	13688.22911	12749.18193	13765.53199	13596.62461	13223.25938	12595.02963	12242.1058	13345.99176	12926.01083	12147.26972	13300.96673	14463.53841	13717.15432	13628.22145	13171.5641	12355.65485	13182.27496	12684.75888	13499.55938	13474.33084	13005.07014	12908.12436	13561.78615	12124.50489	12920.50373	12745.69482	13026.25915	12441.52006	11995.24411	12557.71122	12214.36096	13058.56157	13776.16943	12015.32069	13484.76396	12627.59084	12962.56058	12966.08534	13221.81316	12637.76626	12144.61729	13051.17023	12451.29888	12286.51778	13567.77498	13012.663	13722.57768	12843.96458	11949.04156	13211.39369	14210.06842	14928.71205	13180.42765	12527.7152	13787.43506	11590.37275	12716.87084	13796.29611	13323.61964	13131.46969	14270.61566	12760.19874	12201.5972	13404.98873	14076.62207	13583.98112	13020.92905	13040.62006	11489.95336	12987.2851	13193.86905	12910.86362	13410.14692	13229.22196	12745.42636	13769.03378	13019.90782	14386.90175	15123.14633	15165.17025	14425.19356	12048.35733	10850.62647	12585.03417	13774.8043	14282.68245	13295.92997	13185.77794	13345.95169	11616.16905	13652.03943	13471.21971	13053.89347	12910.11035	13354.42127	13632.39358	12094.39205	13238.48799	13635.70938	13427.86865	13509.98457	12505.16833	11482.71615	12668.88638	12606.14526	12255.83292	13312.84435	13003.98252	12742.55161	13380.47342	12453.00796	14023.25485	14858.16112	13086.36064	14118.39034	11272.44434	11637.79905
