frame_start	frame_end	Left-Cerebral-White-Matter	Left-Cerebellum-White-Matter	Left-Cerebellum-Cortex	Left-Thalamus	Left-Caudate	Left-Putamen	Left-Pallidum	Brain-Stem	Left-Hippocampus	Left-Amygdala	CSF	Left-Accumbens-area	Left-VentralDC	Left-choroid-plexus	Right-Cerebral-White-Matter	Right-Cerebellum-White-Matter	Right-Cerebellum-Cortex	Right-Thalamus	Right-Caudate	Right-Putamen	Right-Pallidum	Right-Hippocampus	Right-Amygdala	Right-Accumbens-area	Right-VentralDC	Right-choroid-plexus	AirCavity	Skull	Vermis	Pons	CSF-ExtraCerebral	Head-ExtraCerebral	ctx-lh-bankssts	ctx-lh-caudalanteriorcingulate	ctx-lh-caudalmiddlefrontal	ctx-lh-cuneus	ctx-lh-entorhinal	ctx-lh-fusiform	ctx-lh-inferiorparietal	ctx-lh-inferiortemporal	ctx-lh-isthmuscingulate	ctx-lh-lateraloccipital	ctx-lh-lateralorbitofrontal	ctx-lh-lingual	ctx-lh-medialorbitofrontal	ctx-lh-middletemporal	ctx-lh-parahippocampal	ctx-lh-paracentral	ctx-lh-parsopercularis	ctx-lh-parsorbitalis	ctx-lh-parstriangularis	ctx-lh-pericalcarine	ctx-lh-postcentral	ctx-lh-posteriorcingulate	ctx-lh-precentral	ctx-lh-precuneus	ctx-lh-rostralanteriorcingulate	ctx-lh-rostralmiddlefrontal	ctx-lh-superiorfrontal	ctx-lh-superiorparietal	ctx-lh-superiortemporal	ctx-lh-supramarginal	ctx-lh-frontalpole	ctx-lh-temporalpole	ctx-lh-transversetemporal	ctx-lh-insula	ctx-rh-bankssts	ctx-rh-caudalanteriorcingulate	ctx-rh-caudalmiddlefrontal	ctx-rh-cuneus	ctx-rh-entorhinal	ctx-rh-fusiform	ctx-rh-inferiorparietal	ctx-rh-inferiortemporal	ctx-rh-isthmuscingulate	ctx-rh-lateraloccipital	ctx-rh-lateralorbitofrontal	ctx-rh-lingual	ctx-rh-medialorbitofrontal	ctx-rh-middletemporal	ctx-rh-parahippocampal	ctx-rh-paracentral	ctx-rh-parsopercularis	ctx-rh-parsorbitalis	ctx-rh-parstriangularis	ctx-rh-pericalcarine	ctx-rh-postcentral	ctx-rh-posteriorcingulate	ctx-rh-precentral	ctx-rh-precuneus	ctx-rh-rostralanteriorcingulate	ctx-rh-rostralmiddlefrontal	ctx-rh-superiorfrontal	ctx-rh-superiorparietal	ctx-rh-superiortemporal	ctx-rh-supramarginal	ctx-rh-frontalpole	ctx-rh-temporalpole	ctx-rh-transversetemporal	ctx-rh-insula
0	30	6.553793907165527	26.00476837158203	5.053856372833252	6.923641681671143	0.7681682705879211	4.351261138916016	-5.938246726989746	3.3642289638519287	12.827408790588379	-3.3501813411712646	3.733957290649414	2.11258602142334	-6.264307022094727	-26.23406219482422	5.0987467765808105	28.056259155273438	8.169063568115234	8.650778770446777	11.183974266052246	38.38738250732422	-14.243006706237793	4.506523132324219	48.86708068847656	0.8454717397689819	-2.762308359146118	84.55817413330078	2.779550075531006	7.371465682983398	-5.286882400512695	15.949048042297363	8.518033981323242	6.982230186462402	7.042337417602539	-1.9958791732788086	0.028798092156648636	16.58785057067871	-16.172876358032227	18.41356086730957	1.9647080898284912	12.072735786437988	9.680371284484863	-2.06868839263916	-1.9810791015625	14.163639068603516	6.121734619140625	2.357715368270874	7.932882308959961	-7.048447132110596	2.3298938274383545	-3.2218222618103027	-0.6625871062278748	-22.785654067993164	-4.232805252075195	14.184428215026855	2.589815378189087	-4.930332183837891	-5.979536533355713	8.827080726623535	2.94014048576355	7.68933629989624	16.726659774780273	6.420680999755859	18.46872901916504	-13.876168251037598	-13.71159553527832	5.389312744140625	28.73934555053711	-11.111115455627441	15.695459365844727	-9.2080717086792	30.577049255371094	10.350071907043457	11.201069831848145	45.30548095703125	21.10736656188965	-6.430822849273682	15.27033519744873	-4.272441387176514	7.651979923248291	6.069722652435303	-5.529496192932129	-1.5960233211517334	66.94689178466797	-11.592312812805176	24.16541862487793	-0.7082369923591614	45.97914123535156	-4.349494457244873	-3.7075345516204834	1.4898955821990967	-3.2301881313323975	6.944701194763184	1.4302555322647095	-0.3151296377182007	25.36307716369629	-0.5409961342811584	11.140532493591309	23.17144203186035	31.13882064819336	19.053932189941406
30	60	883.5552978515625	1259.64599609375	2222.35595703125	2302.520751953125	2670.143310546875	3004.375244140625	3370.3427734375	1750.6458740234375	2852.86279296875	1670.9927978515625	1057.13525390625	3743.3447265625	2264.79541015625	7508.32568359375	1022.810791015625	1320.010986328125	1839.302001953125	2418.00439453125	1934.8013916015625	2731.602294921875	2554.525634765625	1430.6094970703125	1680.358642578125	8103.2548828125	2926.978759765625	6638.18505859375	29.984317779541016	743.9572143554688	2269.441162109375	1741.1898193359375	2317.38330078125	659.0184936523438	2326.025146484375	4046.32275390625	2925.925048828125	3372.7265625	6462.34423828125	1954.064453125	2866.84521484375	2539.888671875	1469.3453369140625	2606.958984375	2680.513427734375	2891.119140625	3488.00537109375	2761.6708984375	1080.8153076171875	3282.425048828125	4092.07861328125	1863.0281982421875	2970.327392578125	5861.6279296875	3371.70703125	4100.9208984375	3450.4814453125	3389.249755859375	3038.259521484375	3632.68212890625	3133.296142578125	2717.96533203125	3093.345458984375	4002.75439453125	1078.6923828125	-39.535552978515625	4568.23681640625	5215.37841796875	4147.76611328125	2473.294921875	3530.130615234375	4419.81494140625	6116.01513671875	1775.5999755859375	2827.497314453125	2167.077392578125	2448.4384765625	2830.753662109375	2729.260498046875	2146.733642578125	2655.399169921875	1862.358154296875	2182.087158203125	2394.3916015625	4401.77880859375	1179.2943115234375	2869.827880859375	3532.292236328125	2913.61376953125	2437.02734375	2931.510009765625	2670.85205078125	3583.623291015625	2863.788330078125	3214.347900390625	2559.279541015625	2468.20654296875	4171.1865234375	809.8108520507812	1773.0030517578125	6061.302734375	4441.46728515625
60	90	3922.649658203125	6158.09521484375	11737.7705078125	12023.3779296875	15347.6494140625	17448.427734375	10691.3212890625	7139.37158203125	12146.3671875	7698.03369140625	5903.001953125	15538.138671875	8507.8173828125	39715.12890625	4570.744140625	6278.04150390625	10914.5078125	11850.34375	15899.330078125	16215.146484375	12299.552734375	10398.25	9057.6650390625	16290.3837890625	8540.7890625	27443.380859375	149.6728057861328	2884.894775390625	12170.6572265625	8598.5986328125	8747.4345703125	2852.35205078125	12746.8154296875	17350.408203125	17917.080078125	23851.126953125	12502.7783203125	12197.1416015625	15481.052734375	13424.7109375	11110.310546875	15897.2080078125	13521.01171875	16675.3359375	14297.77734375	15386.017578125	4716.43896484375	17945.232421875	19765.486328125	9338.892578125	17110.1484375	30869.728515625	16997.587890625	14864.2744140625	17061.8515625	17182.423828125	16746.19140625	18436.34375	16912.251953125	15085.9052734375	13985.2890625	18424.625	3383.296142578125	3871.171142578125	23307.736328125	16836.462890625	16378.0341796875	8001.697265625	17477.67578125	22100.048828125	15921.9833984375	10401.1787109375	15769.6455078125	11717.7568359375	10776.5126953125	16710.095703125	12235.8955078125	14952.341796875	13592.388671875	11092.169921875	9290.0810546875	13815.7119140625	18038.23828125	8415.8466796875	16885.318359375	25798.07421875	15599.1943359375	10199.3505859375	15445.0986328125	15658.814453125	16294.0078125	15916.3662109375	16163.3544921875	15691.859375	12711.7255859375	17192.8046875	4505.17919921875	8744.904296875	21588.5390625	15425.775390625
90	120	7517.71875	12308.759765625	22148.080078125	23092.109375	30209.859375	32371.826171875	18364.71484375	12639.5517578125	20675.11328125	16449.7109375	9978.1298828125	23986.833984375	13263.240234375	68139.2734375	8545.7705078125	11100.9404296875	20645.1953125	23240.923828125	30603.404296875	28747.068359375	20382.248046875	18239.138671875	16158.130859375	30751.537109375	15411.4345703125	55015.36328125	204.2703857421875	5249.953125	22854.96875	15132.79296875	14576.7138671875	5060.04541015625	26340.697265625	29870.275390625	32057.134765625	41533.04296875	19341.728515625	23407.490234375	28513.7734375	24672.744140625	17726.9765625	30915.453125	23238.689453125	29640.705078125	25458.197265625	27062.83984375	10934.771484375	29715.75	35216.484375	17487.373046875	34984.47265625	61090.98828125	31896.24609375	26860.37890625	31852.748046875	34779.9140625	33709.04296875	33704.68359375	32336.20703125	28333.22265625	27115.990234375	32833.546875	7837.251953125	7296.78662109375	41316.59375	28239.775390625	29814.6484375	15076.8759765625	32935.30078125	40432.078125	25956.328125	20017.775390625	30714.556640625	20301.71484375	22592.80859375	31161.92578125	22120.6015625	29401.71875	25099.892578125	21437.978515625	13299.173828125	24741.865234375	29964.89453125	14740.7333984375	32748.47265625	43090.3359375	29734.236328125	22383.685546875	30166.654296875	29078.759765625	28799.130859375	30001.013671875	30913.619140625	29437.861328125	23062.953125	33317.19140625	8991.869140625	14421.23046875	36307.26953125	27710.99609375
120	150	10550.3525390625	17179.85546875	30976.5	32643.1015625	39971.890625	45384.12109375	26165.958984375	18065.314453125	28316.83203125	18239.7109375	13317.89453125	27042.015625	15549.541015625	99065.515625	11832.12890625	16491.953125	29082.46875	33048.2421875	44273.7734375	44199.02734375	26219.98046875	29335.36328125	20417.12109375	31014.634765625	16872.626953125	83470.6015625	153.33164978027344	6780.2724609375	32470.279296875	20309.228515625	18922.21484375	6718.73583984375	36280.890625	36755.93359375	45980.28515625	58080.484375	22646.69140625	32336.59765625	40441.44140625	34507.69921875	24046.8359375	44953.47265625	31876.107421875	45002.1796875	34434.5078125	39203.140625	12623.1396484375	41883.91796875	50081.07421875	24834.427734375	47427.96484375	81896.8125	46720.32421875	37521.46484375	44539.61328125	48954.58984375	46375.93359375	48040.0546875	45758.26171875	42216.80078125	36121.31640625	46274.0234375	10175.8349609375	11640.55078125	57332.54296875	36253.4375	43678.125	19084.29296875	46612.2890625	57671.390625	25872.791015625	29066.611328125	42757.00390625	30332.705078125	29343.00390625	44737.71875	27645.765625	37678.71484375	34162.5859375	30830.646484375	16445.548828125	32236.111328125	42312.56640625	21835.267578125	45464.390625	63790.25	42673.46875	30936.72265625	41169.85546875	41466.14453125	42859.328125	42505.5234375	42114.80078125	42846.65234375	32680.400390625	45048.50390625	13049.306640625	22778.37109375	59920.99609375	34487.95703125
150	180	11914.0498046875	19403.712890625	33498.71875	36562.59765625	46210.63671875	50536.21484375	30556.849609375	17844.62890625	31447.1171875	22604.369140625	14058.634765625	32738.04296875	15159.3681640625	85051.65625	13116.2626953125	19079.548828125	31843.08203125	36248.32421875	49142.26953125	44467.05859375	27799.7265625	32412.302734375	24166.119140625	30607.208984375	16515.751953125	82526.703125	31.30707550048828	7337.68701171875	37897.796875	21293.107421875	19366.64453125	7183.4306640625	40291.375	40489.8359375	47633.6484375	66710.1015625	18522.712890625	37315.7578125	45190.37109375	38366.296875	23179.89453125	50313.5234375	33267.03125	47282.59765625	36078.10546875	43009.25390625	16782.84375	47785.64453125	54430.13671875	27317.595703125	51082.359375	92185.4921875	51005.08203125	39098.2578125	48603.2734375	52519.92578125	47006.09765625	52213.5546875	49174.5234375	47550.4375	38897.09375	51202.69921875	7403.01171875	15498.7412109375	63603.59765625	36280.05859375	46708.36328125	17080.658203125	50398.00390625	65964.6328125	25162.716796875	31538.453125	47868.36328125	33472.46484375	26285.27734375	48585.83203125	30788.828125	42341.109375	37504.83984375	33372.078125	17667.21875	39272.046875	46741.79296875	22006.736328125	48806.05859375	67807.09375	46944.65625	33536.1875	46097.69921875	45944.42578125	50542.21484375	46466.47265625	47490.5703125	45483.39453125	34894.06640625	48993.984375	12202.6982421875	24381.865234375	57410.3515625	38590.7890625
180	240	11902.720703125	19315.517578125	34576.76171875	36846.44921875	47158.16796875	49171.3125	29400.291015625	18949.365234375	29613.126953125	24361.029296875	12194.4541015625	28664.765625	16150.17578125	87898.5859375	13237.86328125	17656.54296875	32792.40625	36426.52734375	47829.58984375	46825.87890625	29140.802734375	32207.767578125	24341.7109375	33576.58984375	16017.6708984375	87292.2265625	-200.30484008789062	7330.61572265625	38111.3046875	22864.75390625	17755.146484375	7303.5751953125	40875.25	39133.63671875	50420.76171875	62943.94140625	19327.576171875	36789.859375	45874.42578125	38752.84765625	24512.41015625	51225.55859375	32661.697265625	48538.0546875	36633.328125	43623.01953125	14833.109375	46380.16015625	51324.54296875	26387.2734375	51928.6328125	89550.765625	51923.15625	39642.8828125	47936.21484375	53071.96875	49277.90625	51766.17578125	49272.453125	47705.80859375	39725.078125	50533.5703125	11631.423828125	14290.400390625	60682.796875	36241.578125	45480.24609375	19434.263671875	49696.1953125	64942.23046875	26384.912109375	31791.421875	47522.21484375	33731.83984375	26518.3203125	49804.109375	30754.09765625	41502.765625	36245.4453125	34965.58984375	18591.1953125	40975.95703125	45254.61328125	25164.58203125	48751.04296875	67301.8828125	48363.71484375	33592.18359375	44798.5	45237.82421875	43817.73046875	45683.859375	46970.30859375	48115.7890625	34757.328125	48354.45703125	14817.8994140625	24808.755859375	48439.6171875	37532.64453125
240	300	12108.1201171875	19451.904296875	33225.73046875	36115.5859375	47270.87109375	47709.734375	27467.9375	18770.765625	28063.7109375	23191.984375	10713.32421875	28200.361328125	15036.033203125	80963.359375	13261.3115234375	18385.19140625	31223.294921875	37636.54296875	46703.3984375	46289.6171875	27075.22265625	29832.349609375	23376.583984375	27660.552734375	16040.474609375	78206.3125	-256.76690673828125	7297.7529296875	35890.95703125	22254.8125	15853.5556640625	7440.79638671875	40347.4453125	37079.890625	46609.08203125	60246.4296875	18411.85546875	36025.828125	43717.20703125	37075.41796875	22273.99609375	46241.43359375	31619.77734375	44934.60546875	36151.92578125	42325.66796875	17226.65625	45094.31640625	49562.59765625	26651.7421875	48712.27734375	82519.0625	48286.16015625	34433.78125	44839.0859375	49913.12890625	44446.23828125	48689.91015625	46323.515625	45053.08203125	38003.46484375	47427.16015625	8594.8984375	17889.90234375	57300.37109375	34325.6171875	42195.40625	19450.4140625	47477.01171875	60665.77734375	26203.533203125	30340.015625	46012.5390625	32813.8671875	30182.203125	47290.3046875	29021.431640625	38798.44921875	34567.67578125	33951.625	20647.955078125	36138.0	42847.1328125	24790.287109375	45829.55859375	63371.71484375	47482.890625	34286.484375	42554.18359375	43083.1484375	43698.49609375	43797.55859375	44859.09375	46638.14453125	35252.546875	44616.8515625	17403.994140625	23389.263671875	50677.27734375	36207.4921875
300	360	11723.8671875	18194.46875	31807.18359375	36208.15234375	43175.89453125	45397.9140625	27552.7421875	19159.23828125	27927.810546875	24122.93359375	8769.583984375	30461.724609375	15640.12109375	64255.44140625	12620.271484375	17489.626953125	30288.974609375	36528.78515625	45550.7265625	42600.5546875	25823.177734375	27651.7265625	23980.09375	28734.193359375	16590.212890625	69516.8125	-78.70720672607422	7129.4990234375	31894.576171875	22007.287109375	13490.4423828125	7434.09912109375	39531.83203125	35964.84375	43099.2890625	54914.8984375	20144.75390625	33476.5859375	40416.9921875	35660.0234375	22437.12109375	44349.4609375	30234.0625	40707.1484375	32138.47265625	39527.69140625	18369.732421875	42792.94921875	44745.1171875	26833.310546875	45368.28125	75821.3828125	44417.3359375	36354.92578125	43642.5625	45993.46875	43725.96484375	45938.3671875	43569.55078125	44122.86328125	36606.078125	43745.29296875	14609.6044921875	18216.35546875	49378.25	33946.671875	40953.546875	23093.134765625	44379.94921875	54153.82421875	23244.578125	30924.474609375	43740.4296875	32021.6015625	26025.3828125	44588.91796875	28356.330078125	37640.375	31760.638671875	33177.9375	17951.265625	37151.82421875	39306.5546875	25235.126953125	43240.76953125	60426.7890625	42421.03515625	32273.658203125	40629.86328125	41422.46484375	37782.3515625	41529.33203125	41633.4921875	43299.22265625	33036.40625	41139.57421875	19354.64453125	25805.962890625	46769.51953125	35372.91796875
360	480	11717.58203125	18485.6953125	29177.28125	34154.328125	41002.11328125	42166.8671875	26108.69140625	18900.740234375	26257.806640625	21044.18359375	5738.00732421875	27937.708984375	16056.4814453125	57953.40234375	12273.974609375	16431.91796875	28144.986328125	35062.37890625	43351.8515625	39734.34375	26319.94921875	26352.0078125	24652.830078125	26236.166015625	16758.7109375	54801.2109375	9.414044380187988	7116.43310546875	28865.376953125	20835.2890625	10886.4912109375	7716.12939453125	34645.57421875	31986.412109375	40046.37890625	46637.5859375	22633.748046875	31406.34765625	36458.65625	32790.5390625	23404.779296875	38870.359375	28829.2734375	37131.61328125	30726.98828125	36903.14453125	16330.80859375	36743.5859375	39399.234375	27778.013671875	39318.10546875	60722.8203125	39648.37890625	32435.74609375	38347.3671875	41161.16015625	36013.921875	41356.375	39083.86328125	39297.08203125	33604.4453125	38877.02734375	15804.0361328125	19132.0703125	43224.78125	31080.650390625	35223.25390625	22425.4609375	39112.2265625	46548.8046875	25083.759765625	27842.80078125	39703.2734375	30281.740234375	26879.763671875	40137.609375	27259.2421875	33526.953125	30343.578125	31302.5703125	19989.85546875	32729.12890625	32662.98828125	25200.34765625	39400.4296875	50081.46484375	39134.4921875	31790.828125	36831.203125	37095.46875	35096.421875	37663.03515625	37695.2421875	40078.08984375	31176.5078125	37465.87109375	18874.7265625	24416.94140625	37350.57421875	31768.6953125
480	600	11418.978515625	17254.865234375	25858.626953125	31019.427734375	35457.984375	36282.015625	25247.77734375	18511.630859375	21312.890625	22629.8125	3074.131591796875	27651.228515625	16916.396484375	37345.6953125	11763.6162109375	16315.9775390625	24669.861328125	33178.73046875	38025.2890625	35337.51171875	22951.244140625	22418.220703125	24985.58203125	23966.916015625	16064.1357421875	44532.0859375	-27.256807327270508	7052.32568359375	24903.533203125	19636.828125	7622.53369140625	7820.04052734375	30193.326171875	27985.48046875	33930.37890625	39072.08203125	22704.060546875	27106.822265625	31169.953125	29429.466796875	20715.19140625	31325.458984375	25819.19921875	30496.544921875	27311.259765625	31186.029296875	17614.43359375	31708.537109375	32721.12109375	25629.421875	33493.62109375	47798.7421875	33882.81640625	28511.521484375	32102.513671875	34889.84375	32682.8359375	34656.98046875	32885.59765625	34280.875	29455.3828125	32305.24609375	16625.99609375	19493.603515625	37736.8515625	27116.8984375	30511.681640625	22517.4921875	33092.51953125	36583.59765625	25341.634765625	25610.341796875	34297.234375	27567.9453125	24758.85546875	33331.5078125	24501.349609375	25962.380859375	27983.072265625	27527.888671875	18984.9140625	28824.220703125	28080.716796875	23622.69140625	34379.3125	39712.19140625	32202.93359375	28918.490234375	31661.529296875	31510.7890625	27701.6640625	32653.08984375	32277.064453125	34161.86328125	27590.876953125	31278.2734375	19017.36328125	24257.68359375	28742.93359375	27690.3046875
600	900	11339.5634765625	17531.04296875	20135.330078125	26311.080078125	27008.455078125	29387.865234375	21183.958984375	16215.505859375	18263.912109375	20925.9296875	1079.9732666015625	20698.888671875	17228.421875	19407.7578125	11296.125	15636.328125	20064.30859375	27107.126953125	27939.8125	27080.626953125	21813.88671875	18177.75390625	20582.162109375	22743.484375	17869.060546875	28278.2578125	-65.2853012084961	7071.724609375	18687.525390625	17484.58203125	4673.005859375	7768.54638671875	22904.15234375	23476.98046875	27153.73828125	27649.837890625	21903.923828125	21710.73828125	23831.888671875	24705.0546875	18817.078125	23942.884765625	21344.220703125	23299.81640625	22962.962890625	24473.896484375	16177.130859375	23068.5625	24546.89453125	22233.3671875	25391.55859375	30537.80859375	25290.25	23017.193359375	24708.16015625	25859.09375	23680.458984375	26732.771484375	24982.2578125	26150.85546875	23488.939453125	24626.787109375	21569.267578125	20568.583984375	26673.001953125	23087.15234375	23465.625	20533.802734375	25908.013671875	26875.947265625	23282.458984375	20738.662109375	26388.62109375	22758.20703125	20665.59375	26382.76171875	21068.671875	22035.896484375	22834.623046875	22980.259765625	15739.1640625	22860.923828125	22269.119140625	21075.974609375	25659.453125	28586.33203125	25256.23046875	22836.181640625	24785.564453125	24334.61328125	21614.046875	25973.51953125	25008.435546875	27086.064453125	22389.732421875	23816.99609375	19419.818359375	21711.92578125	23650.990234375	23104.51171875
900	1200	11526.5107421875	16888.064453125	14974.0712890625	20348.49609375	18922.88671875	20804.58984375	20244.58203125	13484.0205078125	13603.453125	17902.814453125	65.55233764648438	17904.685546875	17196.064453125	7517.52392578125	11321.9365234375	15500.4130859375	15204.03515625	21147.6328125	19141.580078125	19743.259765625	20084.03515625	14567.359375	17210.158203125	19652.3515625	16908.87109375	11532.6181640625	50.18388366699219	7304.49462890625	12675.5771484375	16718.095703125	3389.57080078125	7903.064453125	17432.2578125	17268.892578125	18922.234375	20222.88671875	19394.228515625	16721.140625	16595.75	18899.857421875	14838.30078125	16833.41796875	16496.681640625	17672.34765625	17699.5859375	18052.888671875	12341.4150390625	16334.95703125	16783.79296875	17471.23828125	17632.142578125	18946.248046875	17561.669921875	17895.607421875	17763.02734375	18545.9296875	16880.10546875	19315.30078125	17681.892578125	18835.548828125	17298.55859375	17152.541015625	20816.908203125	17542.763671875	20283.642578125	17472.029296875	16133.435546875	18558.7890625	17785.5	18931.818359375	19646.998046875	16489.83203125	19349.5703125	17700.87890625	17565.7265625	19829.8125	16274.5380859375	15874.0703125	16802.900390625	17339.8671875	13226.5693359375	17013.865234375	15978.2646484375	16928.84765625	17971.83203125	19956.32421875	17635.3203125	18242.455078125	18569.6171875	17630.15625	14890.6826171875	19686.626953125	18040.689453125	19335.50390625	17033.525390625	16527.349609375	18360.419921875	18480.87890625	14335.69140625	17193.787109375
1200	1500	11628.7861328125	16082.51171875	12057.8125	16132.896484375	13891.2705078125	15950.1416015625	19313.08984375	10824.6162109375	11641.0947265625	13618.787109375	154.96995544433594	14905.876953125	16641.388671875	1395.2161865234375	11474.921875	15187.2509765625	12217.955078125	16744.853515625	13601.0087890625	15653.91796875	17691.73046875	11452.3486328125	13824.8388671875	15847.298828125	16416.65234375	5866.97998046875	46.30339050292969	7575.3759765625	10412.5244140625	15354.59375	3484.35693359375	8085.71337890625	15353.4765625	13407.8369140625	14997.5966796875	15238.5654296875	17711.12890625	13298.8994140625	12716.9052734375	15699.4013671875	13723.4599609375	12994.5712890625	13808.2861328125	14065.8896484375	13870.93359375	13804.4697265625	10975.671875	12458.6201171875	13271.189453125	14284.251953125	12945.876953125	14947.4853515625	13108.33984375	14617.0927734375	13606.0029296875	14260.095703125	13093.109375	14813.9599609375	13163.5478515625	14938.8310546875	13719.185546875	13401.2646484375	19536.646484375	15127.384765625	14799.5283203125	14526.2060546875	12052.87890625	13386.79296875	14222.330078125	15364.1513671875	15617.7109375	13801.6162109375	15112.861328125	14306.283203125	14283.830078125	16020.5810546875	13576.501953125	13130.529296875	13581.6474609375	13882.7470703125	11036.4755859375	12994.056640625	13493.9697265625	13770.544921875	14169.109375	13538.9775390625	13547.9560546875	14207.44921875	14416.580078125	13534.7646484375	12434.5234375	15681.5302734375	13775.8740234375	15199.1025390625	13394.8349609375	13164.2373046875	16275.646484375	14161.4365234375	12638.1572265625	14191.787109375
1500	1800	11689.6201171875	15190.67578125	10059.701171875	12890.54296875	9681.4384765625	13671.5908203125	15719.40234375	9146.4267578125	9589.142578125	12312.158203125	1408.8704833984375	13478.095703125	15666.0869140625	-4576.37255859375	11487.6318359375	14216.681640625	10407.2451171875	13664.5966796875	10042.7841796875	13345.87890625	17303.0546875	10220.6357421875	11633.5576171875	13276.9189453125	15079.640625	-1962.4005126953125	168.4452362060547	7718.68017578125	9076.5703125	14293.1337890625	4088.989990234375	8233.6630859375	12189.4267578125	11710.423828125	11487.7705078125	11705.990234375	13709.9658203125	11555.8720703125	10133.3603515625	13868.9951171875	11294.9697265625	10370.1298828125	11901.181640625	11813.0810546875	11693.212890625	11142.853515625	9901.8154296875	9765.36328125	11337.673828125	11087.7568359375	10156.1318359375	10677.3017578125	10505.6943359375	10919.2763671875	11072.5810546875	11695.4404296875	10825.74609375	11595.3818359375	10132.841796875	11812.0068359375	10748.2060546875	10914.1767578125	18585.470703125	12502.6826171875	13037.962890625	11763.3857421875	9945.10546875	12717.7470703125	11821.73828125	12359.669921875	13521.73828125	11829.5419921875	12273.068359375	12310.0810546875	11269.7763671875	13607.220703125	12012.99609375	11040.4560546875	11016.1220703125	11408.693359375	8530.185546875	10474.8798828125	10928.416015625	11578.154296875	11608.578125	9897.263671875	10535.4775390625	11786.015625	11429.435546875	10993.5302734375	9967.548828125	12860.5205078125	10859.498046875	12184.3984375	11047.787109375	10268.8740234375	12873.9072265625	11727.505859375	9442.9306640625	12011.5205078125
1800	2100	11451.9970703125	14577.7158203125	8556.3017578125	11050.6240234375	7650.875	11316.103515625	14075.015625	7456.15283203125	8248.025390625	11826.517578125	1598.722900390625	9723.8388671875	13849.833984375	-4449.9970703125	11147.701171875	13313.6826171875	8753.0009765625	11093.6640625	8511.5205078125	10847.16796875	15370.5185546875	9811.8017578125	10066.8310546875	9195.1064453125	14331.9296875	-2182.8359375	58.47472381591797	7888.47412109375	8059.84765625	13480.2470703125	4489.74560546875	8168.52685546875	9814.6298828125	10007.7724609375	8937.255859375	9880.4345703125	11095.0595703125	10042.01171875	8548.1689453125	11754.9658203125	9716.5048828125	8759.6298828125	10300.3955078125	9940.0185546875	9625.48046875	9370.412109375	7124.96240234375	7891.8095703125	8980.6845703125	9719.46484375	8340.3359375	7967.70458984375	8000.4072265625	9476.2333984375	8865.029296875	9830.140625	9810.19140625	9621.4755859375	7942.326171875	9484.890625	9106.390625	8734.958984375	14855.578125	10541.1708984375	11569.93359375	9921.4443359375	9263.8876953125	10168.841796875	9516.0087890625	9359.9404296875	10917.66796875	10679.681640625	10135.6943359375	10068.521484375	10477.6640625	11195.99609375	10570.435546875	9605.001953125	8889.1162109375	9213.11328125	7543.2568359375	7637.8740234375	9152.7021484375	9383.2919921875	9846.8154296875	7737.64453125	8283.6005859375	9942.462890625	9103.1982421875	9022.2529296875	9104.2841796875	10861.4609375	8609.548828125	10454.12109375	9128.93359375	8559.5380859375	11750.982421875	9576.30859375	10778.59375	10201.23828125
2100	2400	11017.8125	13075.814453125	7593.89990234375	9374.6640625	5988.03173828125	9604.12109375	13759.4638671875	6569.15771484375	8020.7763671875	8704.15234375	1851.1754150390625	7076.47900390625	12237.9658203125	-5759.33544921875	10738.1103515625	12794.8447265625	7748.57568359375	9847.224609375	6796.18505859375	9320.6875	13598.02734375	8881.1552734375	8537.1865234375	8227.9208984375	12644.97265625	-1937.4517822265625	67.08210754394531	7720.96337890625	6495.25	12287.99609375	4680.5751953125	8069.1064453125	8768.796875	7912.1171875	7654.8876953125	7909.13720703125	8909.478515625	8562.6884765625	7364.48974609375	9962.3740234375	8351.9658203125	7388.21875	8066.70751953125	8996.9130859375	8641.1357421875	7949.232421875	5892.7490234375	5887.63720703125	7634.328125	8118.6376953125	7349.37939453125	5135.3232421875	6945.8525390625	7297.8623046875	7173.66259765625	8372.970703125	8860.4853515625	8030.03173828125	6189.69287109375	8559.7958984375	7370.77001953125	7808.93603515625	12677.556640625	10502.1943359375	9814.572265625	9019.9296875	7236.5595703125	8894.84375	8334.3935546875	8065.56787109375	9808.0947265625	9045.515625	9564.9140625	9094.330078125	7734.521484375	10110.7314453125	8915.2001953125	8383.8984375	7642.705078125	7922.43310546875	5215.58349609375	5706.00830078125	8126.55029296875	8164.0634765625	7871.23486328125	6622.287109375	6987.3759765625	8527.9384765625	8104.83349609375	7566.91162109375	7473.47412109375	9438.73046875	7185.4130859375	8714.9130859375	7988.6708984375	6911.61474609375	10085.4443359375	8983.9677734375	8170.693359375	8892.8818359375
