frame_start	frame_end	Left-Cerebral-White-Matter	Left-Cerebellum-White-Matter	Left-Cerebellum-Cortex	Left-Thalamus	Left-Caudate	Left-Putamen	Left-Pallidum	Brain-Stem	Left-Hippocampus	Left-Amygdala	CSF	Left-Accumbens-area	Left-VentralDC	Left-choroid-plexus	Right-Cerebral-White-Matter	Right-Cerebellum-White-Matter	Right-Cerebellum-Cortex	Right-Thalamus	Right-Caudate	Right-Putamen	Right-Pallidum	Right-Hippocampus	Right-Amygdala	Right-Accumbens-area	Right-VentralDC	Right-choroid-plexus	AirCavity	Skull	Vermis	Pons	CSF-ExtraCerebral	Head-ExtraCerebral	ctx-lh-bankssts	ctx-lh-caudalanteriorcingulate	ctx-lh-caudalmiddlefrontal	ctx-lh-cuneus	ctx-lh-entorhinal	ctx-lh-fusiform	ctx-lh-inferiorparietal	ctx-lh-inferiortemporal	ctx-lh-isthmuscingulate	ctx-lh-lateraloccipital	ctx-lh-lateralorbitofrontal	ctx-lh-lingual	ctx-lh-medialorbitofrontal	ctx-lh-middletemporal	ctx-lh-parahippocampal	ctx-lh-paracentral	ctx-lh-parsopercularis	ctx-lh-parsorbitalis	ctx-lh-parstriangularis	ctx-lh-pericalcarine	ctx-lh-postcentral	ctx-lh-posteriorcingulate	ctx-lh-precentral	ctx-lh-precuneus	ctx-lh-rostralanteriorcingulate	ctx-lh-rostralmiddlefrontal	ctx-lh-superiorfrontal	ctx-lh-superiorparietal	ctx-lh-superiortemporal	ctx-lh-supramarginal	ctx-lh-frontalpole	ctx-lh-temporalpole	ctx-lh-transversetemporal	ctx-lh-insula	ctx-rh-bankssts	ctx-rh-caudalanteriorcingulate	ctx-rh-caudalmiddlefrontal	ctx-rh-cuneus	ctx-rh-entorhinal	ctx-rh-fusiform	ctx-rh-inferiorparietal	ctx-rh-inferiortemporal	ctx-rh-isthmuscingulate	ctx-rh-lateraloccipital	ctx-rh-lateralorbitofrontal	ctx-rh-lingual	ctx-rh-medialorbitofrontal	ctx-rh-middletemporal	ctx-rh-parahippocampal	ctx-rh-paracentral	ctx-rh-parsopercularis	ctx-rh-parsorbitalis	ctx-rh-parstriangularis	ctx-rh-pericalcarine	ctx-rh-postcentral	ctx-rh-posteriorcingulate	ctx-rh-precentral	ctx-rh-precuneus	ctx-rh-rostralanteriorcingulate	ctx-rh-rostralmiddlefrontal	ctx-rh-superiorfrontal	ctx-rh-superiorparietal	ctx-rh-superiortemporal	ctx-rh-supramarginal	ctx-rh-frontalpole	ctx-rh-temporalpole	ctx-rh-transversetemporal	ctx-rh-insula
0	30	22.942262649536133	32.437255859375	21.548206329345703	26.6143741607666	-26.10330581665039	89.84541320800781	67.53971099853516	49.008243560791016	196.36830139160156	63.21493911743164	56.19001770019531	13.533028602600098	-30.94089698791504	-308.4754943847656	25.100719451904297	14.607809066772461	28.911848068237305	17.7922306060791	74.7499008178711	-0.05346682295203209	152.59381103515625	-10.776021003723145	62.549949645996094	-73.10254669189453	17.415151596069336	426.69317626953125	25.237733840942383	24.429363250732422	103.20378112792969	33.7630615234375	22.6973876953125	28.99333953857422	-3.2920796871185303	53.0694694519043	9.903603553771973	-42.21519470214844	38.63093566894531	9.307908058166504	21.612878799438477	-3.505338668823242	63.986732482910156	-6.6055588722229	0.08924909681081772	5.910159587860107	-23.00303840637207	19.72193145751953	-71.25072479248047	-20.78495216369629	8.49198055267334	-3.4441609382629395	53.26011276245117	-24.657896041870117	-9.93350601196289	32.26686096191406	-0.2739717364311218	29.545467376708984	6.966202735900879	12.751361846923828	0.54603111743927	-21.89277458190918	17.37125587463379	44.181461334228516	-45.63312911987305	-9.563796997070312	-4.038056373596191	10.117748260498047	65.7601089477539	9.2398042678833	39.58375549316406	-25.128864288330078	70.40123748779297	-3.361295461654663	15.930601119995117	139.9282989501953	-35.84123992919922	25.96232032775879	69.97916412353516	3.7547249794006348	81.89352416992188	33.14093780517578	20.59258460998535	-17.35537338256836	14.566015243530273	94.56765747070312	26.803138732910156	-5.39051628112793	18.792449951171875	-26.594768524169922	10.239399909973145	36.3695182800293	13.5133695602417	21.982831954956055	19.777578353881836	8.453181266784668	49.05470657348633	25.780221939086914	10.97277545928955	19.465007781982422	69.88227081298828	73.21350860595703
30	60	1203.1763916015625	2003.6337890625	4330.09228515625	4809.90673828125	5173.5869140625	5438.6025390625	3507.48779296875	4373.0556640625	4105.3076171875	5442.24609375	625.9591064453125	5535.11279296875	3684.2578125	14861.3388671875	1327.178466796875	2654.774658203125	4178.51708984375	4847.72705078125	6221.0986328125	5817.93017578125	4590.52978515625	3826.380859375	5562.3583984375	3848.306884765625	4796.166015625	15681.6865234375	414.41217041015625	739.8587036132812	4540.47412109375	3812.767333984375	2385.940185546875	797.5595703125	6622.8369140625	9618.3193359375	6155.26416015625	5452.642578125	6220.1552734375	4743.18359375	6196.69287109375	5827.1484375	5599.83056640625	7185.13623046875	6573.458984375	5847.50927734375	8074.74560546875	5280.22900390625	5901.98828125	6068.55322265625	7116.568359375	7407.7373046875	7880.3173828125	10532.8251953125	6086.5078125	8120.087890625	8223.5703125	6837.6767578125	7485.8583984375	7821.96484375	6496.2041015625	6749.6201171875	6637.89892578125	7669.91259765625	8147.08837890625	4282.53955078125	10548.619140625	8783.7001953125	7660.9951171875	6253.04052734375	6839.82958984375	5720.44091796875	3107.086181640625	5481.494140625	5827.126953125	5550.04345703125	5938.2177734375	7012.228515625	8047.34033203125	6288.38720703125	7459.70361328125	4868.2421875	5347.33349609375	6673.23779296875	6242.62353515625	6697.01171875	7289.17626953125	8755.595703125	6850.5703125	6119.72900390625	6516.4228515625	6461.986328125	6821.908203125	7676.24365234375	6412.75732421875	6779.99072265625	5844.8349609375	6637.98974609375	6725.9765625	9533.029296875	12881.384765625	7693.3203125
60	90	5179.2763671875	10790.8251953125	18871.9453125	21631.814453125	25021.630859375	26777.8515625	13896.44140625	15723.869140625	17434.048828125	18837.28515625	2859.52734375	20474.134765625	15361.9482421875	49281.12109375	5910.60546875	9771.0947265625	19481.794921875	20914.6953125	24987.232421875	27905.837890625	12486.9384765625	17238.2265625	17679.08203125	33406.55078125	15033.4912109375	54123.56640625	1152.4564208984375	2506.60107421875	21838.708984375	14954.8271484375	7332.51025390625	2602.550537109375	27131.8671875	30157.04296875	34242.49609375	38944.3515625	18808.435546875	22694.052734375	28233.341796875	24383.982421875	24587.890625	33504.3671875	32704.26171875	31713.703125	34220.046875	24282.40625	23018.322265625	28677.478515625	31457.3046875	34805.375	33243.94140625	50609.93359375	30313.166015625	34275.36328125	34520.94140625	31264.482421875	29648.681640625	36162.6796875	29925.365234375	32801.375	24988.9296875	31048.875	35547.15625	19596.802734375	45101.7109375	24882.953125	28007.0859375	27695.87890625	29403.328125	39431.32421875	18491.142578125	21820.83203125	26875.419921875	22545.349609375	26705.646484375	32955.640625	32980.3125	30957.005859375	26848.900390625	22673.1171875	21094.890625	28767.01953125	28300.67578125	29558.232421875	30895.83203125	41070.35546875	32985.25390625	29080.09765625	29549.0	29616.03125	26416.939453125	33691.75	28806.330078125	30716.125	22969.21875	27722.830078125	40449.94140625	24471.732421875	46157.1171875	26861.29296875
90	120	9828.5576171875	20964.76953125	35723.4375	41559.26953125	49792.90234375	55950.01953125	21944.138671875	26406.994140625	34391.51953125	29105.029296875	5369.669921875	36149.5625	30645.802734375	82555.796875	10920.2880859375	19713.619140625	37118.25390625	39105.60546875	46381.16015625	53323.6953125	25689.845703125	30708.162109375	34851.08203125	54967.15625	26743.859375	101924.3125	1818.3621826171875	4322.79150390625	38389.81640625	28718.775390625	10597.2099609375	4445.154296875	57001.51953125	62595.046875	64533.25	74947.6640625	40590.34765625	43090.52734375	53030.8984375	47159.30859375	52350.0625	65261.83984375	60454.65234375	60912.79296875	65080.2890625	46751.27734375	42358.34765625	60362.21484375	59164.60546875	64199.58984375	67032.9453125	99704.7109375	57711.01171875	62744.7734375	63673.49609375	59086.07421875	56388.25	66967.8828125	60220.953125	65498.0625	48703.8828125	58789.99609375	76161.2109375	35329.05859375	75608.1640625	46986.984375	57337.2421875	48920.67578125	61568.71484375	74845.8125	36455.1640625	43837.30859375	55108.12109375	43122.4375	49498.765625	66822.5234375	62500.80078125	61986.9921875	54450.046875	43525.34765625	40915.703125	58015.48828125	53157.61328125	59486.09375	60611.15234375	88242.984375	64545.2734375	52223.92578125	56940.78515625	58484.87109375	41788.375	64958.578125	58153.01953125	62383.3125	44533.87109375	55108.7421875	73715.5546875	41786.578125	90672.9375	46560.0390625
120	150	13748.8828125	29189.240234375	52417.62890625	59793.7734375	69625.1875	83245.2421875	31078.388671875	36569.71875	48688.65234375	45979.44921875	7727.82275390625	78964.9453125	41838.99609375	114114.015625	15201.8779296875	28812.4453125	54098.12109375	55100.00390625	74124.59375	77944.7578125	38054.8359375	49498.89453125	46180.00390625	54605.140625	41831.80859375	141443.171875	2055.877197265625	5629.30029296875	60261.73046875	42457.47265625	11987.443359375	6095.82373046875	79634.453125	78255.8671875	93203.1640625	106125.46875	51177.26953125	64423.265625	79330.8828125	68044.3671875	73519.5546875	92942.703125	84936.890625	87721.53125	90016.015625	71014.4453125	58514.140625	85471.046875	85089.765625	95541.5234375	93227.65625	140792.703125	84462.703125	92065.84375	92476.859375	87925.234375	73930.3515625	98022.0078125	87088.0546875	93382.515625	70347.375	86546.6875	104504.953125	49364.66015625	103780.6796875	63125.71484375	76933.609375	67495.9375	87533.8359375	105040.8046875	53044.10546875	62367.453125	79776.4296875	65879.421875	65359.921875	97509.53125	87083.1796875	86967.75	78968.875	65073.44140625	52288.19921875	85944.8515625	79539.359375	89188.171875	87064.7265625	122823.8359375	91316.359375	74758.1171875	80845.875	85441.0546875	60361.71875	93556.171875	81998.765625	93119.390625	63933.109375	79304.2109375	107818.3203125	61574.73828125	112527.9140625	64671.1328125
150	180	15904.7138671875	32803.98828125	59744.875	68845.3046875	77562.546875	96934.09375	32497.705078125	41432.1328125	51581.23046875	56657.16796875	7812.03759765625	81977.3671875	47048.24609375	129448.2890625	16910.88671875	32018.71875	60988.4296875	62255.7890625	82798.7109375	88359.5703125	39891.66796875	50165.140625	56154.65625	57523.59375	46946.546875	143659.421875	2137.63525390625	6198.53076171875	67105.9453125	47195.48046875	10063.455078125	6491.3466796875	88745.53125	87573.9453125	103418.96875	121861.96875	56738.05078125	73752.984375	88758.8828125	78825.9375	81770.5	105607.1484375	97610.953125	99775.390625	100489.8828125	78051.53125	59035.55078125	96877.3359375	95346.5859375	103994.75	107455.8203125	159732.625	93016.59375	97113.390625	105180.8359375	96661.7265625	82036.8984375	109377.3046875	96699.3203125	107271.6640625	76713.515625	97504.2734375	117761.9921875	55802.1953125	107412.8671875	69483.90625	84841.4921875	77934.3984375	97186.8984375	118270.7578125	57794.83203125	71319.4609375	93622.5625	73800.6640625	81324.6015625	109433.7265625	94106.703125	97391.4921875	88869.234375	76293.2578125	58480.02734375	99995.4609375	84983.015625	97497.109375	98975.453125	137266.921875	102028.3125	84414.71875	93272.8203125	93227.5859375	58725.3984375	106965.2109375	91621.0625	104952.03125	71980.015625	88822.6953125	122197.734375	61321.515625	130454.5	71273.453125
180	240	17198.490234375	34871.44140625	61682.234375	71141.046875	83856.15625	98939.09375	37676.8828125	41620.1875	55136.828125	55216.15234375	6248.68115234375	79575.6953125	49894.90625	115574.90625	17936.853515625	32357.70703125	63578.3828125	68588.4453125	86782.359375	93907.7421875	42497.62109375	52006.984375	55853.984375	66734.75	48056.578125	128991.0625	2105.5205078125	6334.09326171875	65600.53125	49648.6640625	8132.9052734375	6722.58837890625	93338.390625	89449.15625	107581.796875	129780.3984375	57579.44140625	76448.625	94623.6328125	81813.4375	77698.84375	107256.3984375	101343.390625	104993.9375	104623.9765625	81949.6796875	61585.1484375	98201.9140625	98120.3125	106013.5	110914.9765625	152283.265625	97890.203125	100221.0546875	108271.5078125	99152.0390625	81547.734375	113843.8203125	101709.3671875	109336.8515625	80393.109375	99399.5234375	118167.515625	61215.015625	112016.8828125	73289.8203125	86049.953125	76458.40625	102377.71875	122573.6015625	64856.63671875	73739.90625	98564.8046875	76072.6484375	82307.1796875	111394.1796875	100601.734375	98729.21875	93589.15625	79637.3671875	65073.0625	100253.640625	89165.0859375	100573.46875	101018.1875	142669.796875	107353.140625	86170.96875	95459.5546875	97102.6953125	68442.453125	110519.984375	96438.5	107904.484375	76662.78125	93858.9765625	120631.765625	61441.38671875	116837.3359375	71449.96875
240	300	18331.013671875	34273.40625	61553.77734375	70333.3359375	84586.4765625	99708.1953125	41097.57421875	41552.20703125	51231.79296875	56831.48828125	5229.2646484375	83968.84375	52704.15234375	94104.3125	18911.33984375	33571.44921875	63461.55859375	69075.9921875	87612.578125	93605.875	45269.28125	50570.84765625	58307.55078125	65609.6875	51259.49609375	105849.078125	1989.8057861328125	6607.82373046875	67175.84375	49996.390625	7066.65283203125	6883.2841796875	89925.5078125	86676.421875	104762.8046875	117154.0078125	55311.01953125	76250.6015625	91950.375	81167.375	83000.1015625	102080.640625	98261.609375	97266.9453125	99871.890625	81323.0078125	65618.90625	93416.5234375	95166.375	99757.28125	104616.421875	151658.375	95794.953125	96874.2578125	106896.9453125	96118.3828125	82908.625	111336.59375	97912.7578125	105290.7890625	79307.8125	96542.7578125	114188.0703125	63520.2734375	107537.6953125	70975.8125	86503.53125	81892.578125	99730.1640625	119057.90625	64788.26953125	73667.046875	95363.3671875	76054.2890625	79656.484375	106710.1484375	97057.8515625	92934.625	93990.7578125	79462.859375	67274.8671875	99651.2578125	85336.671875	95483.8125	97347.5546875	133051.15625	102461.5859375	83230.9375	94329.4140625	93541.7578125	60551.3125	108721.6171875	95240.828125	105156.7890625	75178.1484375	91051.234375	122026.7734375	62625.91015625	111087.0	71697.0078125
300	360	18777.353515625	33455.75	59115.01953125	70004.6640625	81536.921875	95314.7421875	42153.06640625	42828.91796875	53000.44140625	57315.28515625	4608.07666015625	82303.0546875	47259.62109375	66662.0390625	19238.82421875	33237.0625	60629.33984375	68046.6953125	84057.734375	90443.703125	41193.71875	48758.046875	56337.36328125	72604.484375	49243.3515625	71999.7421875	1873.35107421875	6851.82666015625	59991.2109375	47907.51953125	5653.2099609375	6942.24951171875	85421.5546875	84977.4296875	96764.515625	114390.703125	55691.7734375	71461.5	87763.6484375	77453.6015625	76960.3203125	95067.9921875	92291.1328125	88401.3203125	97414.125	79068.4921875	61600.29296875	89554.984375	89753.625	96638.4609375	99245.8515625	131368.0	90779.078125	93502.9375	98541.734375	89029.890625	77908.609375	104447.2421875	93312.484375	99038.0	75579.078125	90745.296875	114933.7421875	60665.64453125	90318.1328125	71308.4375	82091.9375	71049.3671875	92513.21875	110617.3046875	60179.234375	69156.2578125	90804.0859375	74636.6484375	76090.3359375	100258.0	90986.4375	86491.6484375	87055.109375	76092.296875	67915.328125	95137.3203125	81415.5234375	92447.8984375	91363.1875	118268.28125	97044.953125	80673.3125	88628.484375	89659.5078125	63376.3203125	102606.578125	89957.0546875	99643.0703125	71750.6171875	87180.515625	116642.40625	62602.16796875	113526.4453125	66614.9921875
360	480	19661.291015625	33605.11328125	54311.203125	65852.84375	74962.828125	85602.1328125	43460.625	40414.046875	44186.23046875	58360.6875	2632.2890625	66051.15625	49164.81640625	48938.53515625	20126.361328125	33218.1015625	55274.29296875	62052.60546875	77501.046875	81481.7890625	45866.02734375	47236.39453125	58392.8515625	70132.0859375	45982.47265625	67197.046875	1870.108154296875	7007.2236328125	51646.7421875	44942.41015625	4309.82080078125	7107.771484375	75759.3046875	74477.4765625	85536.9921875	102731.1640625	54540.6171875	66126.6328125	78545.515625	72129.8671875	69904.2265625	83124.7890625	84573.1015625	78911.3984375	86699.6875	71767.953125	56843.15625	81817.0390625	80654.3671875	85173.09375	87076.2421875	109157.515625	81423.0234375	82524.5546875	86391.859375	79431.75	69244.609375	93051.7734375	83110.28125	86457.5703125	69353.0703125	81325.3125	101944.03125	59322.34765625	81601.2578125	63660.33984375	75026.2421875	66530.6953125	82220.8359375	95986.015625	57693.27734375	64481.55859375	81929.2890625	68002.296875	65008.84375	88685.71875	82638.46875	76041.5234375	78969.0	69845.328125	57398.328125	83891.34375	72990.6953125	79163.171875	83450.8828125	100480.5859375	85069.4609375	70911.96875	78517.3359375	77632.765625	59173.609375	91081.515625	81180.5546875	87765.390625	64892.296875	78201.2890625	100984.734375	60513.359375	87377.453125	64026.23046875
480	600	20314.888671875	31577.701171875	47629.98828125	58929.703125	63223.5546875	73311.90625	43703.15234375	37665.98828125	40733.984375	51710.99609375	1139.513916015625	68183.765625	45741.66015625	32651.822265625	20434.28125	32120.154296875	48541.31640625	57601.6640625	68468.8046875	70938.46875	42303.2578125	40839.97265625	56059.67578125	52974.5390625	44098.30859375	49736.82421875	1674.82861328125	7121.24609375	41249.03515625	41981.18359375	3109.692626953125	7367.70068359375	64131.609375	63203.88671875	72012.0234375	83295.4296875	49381.32421875	55984.66015625	66155.46875	63199.70703125	60783.609375	68418.171875	71223.3125	65476.390625	73777.1875	63033.16015625	54470.26953125	68764.46875	68100.9375	71002.4375	75551.421875	86762.828125	68845.90625	66949.734375	71953.6875	66411.8828125	62983.00390625	78917.3359375	70587.6171875	73298.4296875	60392.09375	68734.3046875	86106.125	57788.55859375	66578.3671875	57908.57421875	64243.81640625	58971.33203125	68101.859375	81134.3515625	56235.5078125	56202.40234375	69973.9609375	60711.42578125	60635.45703125	75154.15625	69564.1875	64535.42578125	69854.859375	60794.74609375	52240.42578125	72318.2109375	61946.45703125	65473.62109375	69365.5625	77755.390625	70588.3203125	61680.49609375	65928.0625	67103.6640625	53657.140625	78003.46875	69353.5625	74316.125	57857.49609375	67214.75	87401.6015625	58009.05078125	65508.1796875	56667.95703125
600	900	20926.86328125	29931.521484375	37344.046875	48823.62109375	49168.28125	57327.42578125	39921.9453125	32843.73828125	33901.203125	44232.26171875	-169.62669372558594	48076.15234375	40078.1328125	22098.5546875	20821.056640625	29933.537109375	38375.515625	48024.859375	52862.015625	55878.1640625	37937.9375	33889.70703125	47101.84765625	55668.296875	38461.265625	27640.52734375	1286.0726318359375	7305.52734375	31870.60546875	36396.58984375	2610.571533203125	7555.27099609375	48496.95703125	50158.09375	55482.453125	62382.6328125	41912.4921875	45587.76953125	50424.0234375	50598.36328125	48153.25390625	51413.59375	55356.8203125	48458.9453125	57153.43359375	49821.68359375	44732.02734375	52110.484375	52426.83203125	51112.3359375	57334.83984375	59541.1640625	53084.125	52799.73046875	53299.30859375	49891.23828125	48148.25	60845.47265625	54436.87109375	55184.32421875	48578.59375	52482.796875	69039.515625	48537.81640625	48572.71875	47634.046875	50075.0703125	46836.32421875	52971.98828125	59760.203125	46793.046875	45105.99609375	54776.5078125	48521.59375	45148.5859375	57013.1640625	54724.73828125	49641.375	55882.671875	48581.03125	41784.9375	53633.85546875	47205.40234375	49251.5234375	53002.15625	56223.35546875	53242.890625	47925.90234375	50739.3203125	50995.1953125	43869.84765625	60014.1015625	53904.71875	56235.4453125	45969.953125	51339.57421875	67436.6171875	51836.15234375	48363.41015625	46249.53125
900	1200	21354.236328125	27199.126953125	27538.953125	37487.48046875	34151.62890625	40498.75	36049.6328125	27189.3046875	24894.888671875	37479.60546875	-791.0074462890625	38093.44921875	34295.70703125	15458.9072265625	21020.46484375	27556.607421875	27935.86328125	37590.296875	37256.9140625	39207.19921875	34106.046875	26550.2578125	39567.92578125	37433.7734375	33188.0703125	12931.7734375	1078.1341552734375	7670.361328125	22308.42578125	30973.671875	2593.06298828125	7927.43115234375	36700.6484375	35666.83203125	38486.0390625	44472.078125	34853.6953125	34348.0703125	36887.5390625	38520.64453125	35362.55859375	37147.30859375	41727.41796875	35752.06640625	41876.625	37539.07421875	35430.63671875	36527.71484375	38534.20703125	38316.52734375	42396.40625	38091.8203125	38651.578125	36913.7578125	37752.78125	35589.70703125	35096.87890625	44677.76953125	39304.87890625	38989.359375	36376.7578125	38524.81640625	53576.09765625	39556.3203125	33176.24609375	37492.45703125	36153.29296875	35647.3984375	37766.47265625	44519.61328125	38828.6015625	35328.74609375	40242.6171875	37432.66015625	35993.08984375	42040.6171875	40219.22265625	36571.04296875	42469.0703125	36523.94140625	31941.94140625	37260.1171875	34480.3984375	37071.4296875	39472.7734375	37845.125	36956.21484375	37857.25	36768.5234375	37215.06640625	33319.53515625	44266.9921875	40078.94140625	39961.52734375	34912.92578125	37896.09375	50619.93359375	41774.57421875	35577.328125	35599.9375
1200	1500	21046.068359375	25190.09375	21308.734375	29164.236328125	25874.01171875	31114.822265625	31815.341796875	22397.958984375	20602.130859375	30395.724609375	-152.9069061279297	22657.8359375	29972.998046875	2382.44384765625	20751.17578125	25465.630859375	21710.4453125	29652.142578125	27010.818359375	29962.625	31313.802734375	21075.1875	31414.259765625	30433.291015625	29234.388671875	3314.440673828125	962.8561401367188	8054.02001953125	16395.3515625	27553.92578125	2921.17431640625	8423.578125	28744.60546875	27959.185546875	29898.4296875	34703.07421875	28580.205078125	28721.87890625	28667.75390625	31611.755859375	27224.2421875	30221.48828125	32826.9453125	30112.720703125	34405.9296875	29971.4921875	25910.255859375	27214.642578125	30462.64453125	29776.60546875	33973.2734375	29968.19921875	29627.67578125	28377.96875	28900.3515625	28338.85546875	27902.171875	35916.3203125	30926.83203125	30307.244140625	28991.8046875	30397.263671875	45619.0078125	33649.35546875	29647.154296875	31317.25	28163.662109375	30774.712890625	30221.205078125	34378.609375	32687.630859375	29465.662109375	31614.296875	30870.248046875	29157.271484375	33736.75390625	32573.8203125	30272.6796875	33045.84375	29053.556640625	25649.39453125	28490.1171875	27512.583984375	29985.51953125	31805.287109375	30948.966796875	28266.89453125	30201.3125	28947.5	29358.181640625	27294.37890625	35704.7734375	31407.65234375	29498.0	28199.76171875	30277.71484375	43487.0234375	33306.46484375	28365.009765625	28644.119140625
1500	1800	20602.134765625	23193.337890625	17003.990234375	23465.69140625	18450.080078125	23678.44140625	27906.283203125	19202.9453125	17200.94921875	23671.044921875	751.0499267578125	18221.380859375	25829.544921875	-3066.15576171875	20228.623046875	23499.572265625	17527.828125	23297.90234375	20472.3828125	22855.04296875	29150.224609375	17680.515625	27262.841796875	20706.12109375	24824.97265625	-2967.2216796875	794.1253662109375	8292.869140625	14017.94140625	24119.40625	3202.33447265625	8910.5966796875	25132.359375	23405.9765625	24147.46484375	29116.353515625	24965.53125	25439.35546875	23448.89453125	26645.0546875	22578.798828125	25131.75390625	28363.744140625	25402.337890625	26062.552734375	25189.50390625	22207.3828125	21645.150390625	25764.7421875	25934.322265625	28482.552734375	23976.6796875	24582.853515625	23465.890625	22659.44921875	23866.25	22892.9921875	30093.69921875	24936.671875	24561.716796875	24444.10546875	24568.72265625	38939.89453125	27790.646484375	25163.30078125	25977.322265625	24527.4765625	25214.6171875	24140.990234375	29111.0234375	26266.830078125	26115.439453125	26369.576171875	26576.634765625	24160.4609375	29366.828125	27773.3515625	26822.306640625	29507.236328125	24325.787109375	21336.37109375	22881.0546875	23418.498046875	24325.859375	26538.734375	25775.828125	23543.015625	24586.8828125	23389.3671875	24603.28515625	23020.443359375	29578.39453125	26427.1484375	23845.501953125	23828.66015625	24824.220703125	35067.91015625	28562.26953125	25088.90625	23711.7734375
1800	2100	19535.763671875	20676.609375	13941.068359375	18895.806640625	14880.9833984375	18600.423828125	25631.71875	15928.875	16012.244140625	19053.875	986.1529541015625	11110.134765625	21907.091796875	-4400.841796875	19216.83984375	20915.3515625	14128.5458984375	19050.892578125	15102.91796875	17490.310546875	25419.2578125	15831.458984375	21300.056640625	16296.841796875	21689.6796875	-6038.5439453125	793.8553466796875	8401.787109375	10571.08203125	22237.708984375	3503.1337890625	9078.2568359375	21619.5078125	19204.66015625	20445.015625	25086.51953125	19461.19140625	22847.828125	20156.169921875	23681.8515625	18663.251953125	22573.689453125	23650.642578125	23116.337890625	24165.0546875	22074.75390625	17566.48046875	17880.326171875	21692.87890625	20634.576171875	23963.205078125	21560.734375	20438.375	19900.267578125	19422.326171875	20815.048828125	19831.296875	26000.841796875	21030.1875	20658.73046875	20966.580078125	21186.67578125	34711.4921875	24490.298828125	21336.958984375	21765.814453125	21777.6328125	21385.345703125	21134.275390625	24284.400390625	22663.947265625	23064.291015625	22263.84765625	23078.283203125	20182.359375	25115.982421875	23589.72265625	24264.369140625	24716.22265625	20809.17578125	17361.6015625	17779.1953125	20655.654296875	21537.255859375	22831.826171875	21549.619140625	18837.603515625	22409.880859375	19410.599609375	20578.546875	17933.689453125	26111.7734375	22233.890625	19505.51171875	20430.833984375	21086.0546875	30281.103515625	24757.466796875	22601.9765625	20630.1171875
2100	2400	18681.6484375	18258.453125	11767.447265625	15184.3125	11389.11328125	15805.40625	21745.63671875	13318.2216796875	11983.6357421875	16683.349609375	1112.734375	5054.173828125	20598.853515625	-4718.1318359375	18244.291015625	19180.337890625	12108.0625	15489.1083984375	12570.43359375	14886.8837890625	22118.443359375	12579.4140625	18118.931640625	6526.80615234375	18192.416015625	-8648.072265625	676.9030151367188	8411.0419921875	9317.1005859375	19169.123046875	3611.611328125	9258.3505859375	18868.814453125	16931.796875	16875.513671875	21671.181640625	18128.31640625	21028.3359375	17460.703125	21083.681640625	16974.63671875	19706.63671875	21871.505859375	20723.02734375	20275.08203125	19142.845703125	15020.3876953125	15057.5390625	19551.697265625	20142.755859375	21954.9296875	18188.869140625	16778.287109375	16770.87890625	16352.23828125	17792.87109375	16772.875	22112.431640625	18280.10546875	18070.181640625	18135.53125	19239.6796875	31697.359375	22262.65234375	20099.375	18928.201171875	19349.2109375	19005.03125	17564.251953125	21538.58984375	21599.7578125	21831.8203125	19748.998046875	20151.908203125	16369.5380859375	22427.998046875	21603.232421875	21697.80859375	21675.125	18427.275390625	14648.556640625	14501.7734375	18642.041015625	19877.1640625	19975.005859375	19995.517578125	15992.8427734375	18726.98828125	17178.541015625	18457.21875	14722.1845703125	22342.216796875	19277.986328125	16626.240234375	18061.13671875	18882.728515625	28418.8984375	18952.3828125	20503.4375	18089.546875
2400	2700	17549.0078125	16853.205078125	10216.8818359375	12724.8134765625	9337.755859375	13702.7646484375	20474.966796875	11370.3466796875	11428.7001953125	14110.34765625	2263.309814453125	4762.9453125	15695.9541015625	-11786.830078125	17178.470703125	17319.03515625	10485.2099609375	12361.462890625	10881.71484375	12876.236328125	19080.912109375	10850.33203125	14749.005859375	5295.400390625	17103.59375	-7480.02099609375	623.7994995117188	8374.40625	8311.197265625	16819.3046875	3751.861328125	9306.484375	17030.693359375	15001.140625	14681.7119140625	18189.900390625	16450.26171875	18428.515625	15042.5322265625	19159.748046875	14845.7236328125	17584.884765625	20321.666015625	18905.9921875	18133.24609375	17211.65625	14971.0537109375	12168.052734375	17982.072265625	18101.625	19966.92578125	16688.783203125	14621.126953125	17413.591796875	14498.205078125	16074.9052734375	14799.54296875	19902.41796875	15542.4521484375	16052.7294921875	15916.5439453125	17173.599609375	28025.720703125	19132.787109375	20292.53125	16294.2080078125	17565.990234375	16863.099609375	16173.5185546875	20198.525390625	17432.509765625	19938.294921875	17709.52734375	18868.240234375	14772.4599609375	19824.3984375	19135.521484375	20053.193359375	19546.16796875	15933.880859375	13672.806640625	13285.4375	18161.681640625	17286.17578125	18090.712890625	17796.564453125	14550.8955078125	16189.974609375	14821.5625	15980.9658203125	14859.669921875	20013.48046875	16378.0126953125	14364.732421875	15972.5498046875	16435.130859375	25582.849609375	17041.65625	18893.51953125	15409.7294921875
