frame_start	frame_end	Left-Cerebral-White-Matter	Left-Cerebellum-White-Matter	Left-Cerebellum-Cortex	Left-Thalamus	Left-Caudate	Left-Putamen	Left-Pallidum	Brain-Stem	Left-Hippocampus	Left-Amygdala	CSF	Left-Accumbens-area	Left-VentralDC	Left-choroid-plexus	Right-Cerebral-White-Matter	Right-Cerebellum-White-Matter	Right-Cerebellum-Cortex	Right-Thalamus	Right-Caudate	Right-Putamen	Right-Pallidum	Right-Hippocampus	Right-Amygdala	Right-Accumbens-area	Right-VentralDC	Right-choroid-plexus	AirCavity	Skull	Vermis	Pons	CSF-ExtraCerebral	Head-ExtraCerebral	ctx-lh-bankssts	ctx-lh-caudalanteriorcingulate	ctx-lh-caudalmiddlefrontal	ctx-lh-cuneus	ctx-lh-entorhinal	ctx-lh-fusiform	ctx-lh-inferiorparietal	ctx-lh-inferiortemporal	ctx-lh-isthmuscingulate	ctx-lh-lateraloccipital	ctx-lh-lateralorbitofrontal	ctx-lh-lingual	ctx-lh-medialorbitofrontal	ctx-lh-middletemporal	ctx-lh-parahippocampal	ctx-lh-paracentral	ctx-lh-parsopercularis	ctx-lh-parsorbitalis	ctx-lh-parstriangularis	ctx-lh-pericalcarine	ctx-lh-postcentral	ctx-lh-posteriorcingulate	ctx-lh-precentral	ctx-lh-precuneus	ctx-lh-rostralanteriorcingulate	ctx-lh-rostralmiddlefrontal	ctx-lh-superiorfrontal	ctx-lh-superiorparietal	ctx-lh-superiortemporal	ctx-lh-supramarginal	ctx-lh-frontalpole	ctx-lh-temporalpole	ctx-lh-transversetemporal	ctx-lh-insula	ctx-rh-bankssts	ctx-rh-caudalanteriorcingulate	ctx-rh-caudalmiddlefrontal	ctx-rh-cuneus	ctx-rh-entorhinal	ctx-rh-fusiform	ctx-rh-inferiorparietal	ctx-rh-inferiortemporal	ctx-rh-isthmuscingulate	ctx-rh-lateraloccipital	ctx-rh-lateralorbitofrontal	ctx-rh-lingual	ctx-rh-medialorbitofrontal	ctx-rh-middletemporal	ctx-rh-parahippocampal	ctx-rh-paracentral	ctx-rh-parsopercularis	ctx-rh-parsorbitalis	ctx-rh-parstriangularis	ctx-rh-pericalcarine	ctx-rh-postcentral	ctx-rh-posteriorcingulate	ctx-rh-precentral	ctx-rh-precuneus	ctx-rh-rostralanteriorcingulate	ctx-rh-rostralmiddlefrontal	ctx-rh-superiorfrontal	ctx-rh-superiorparietal	ctx-rh-superiortemporal	ctx-rh-supramarginal	ctx-rh-frontalpole	ctx-rh-temporalpole	ctx-rh-transversetemporal	ctx-rh-insula
0	30	53.16448211669922	47.063568115234375	44.26525115966797	28.012020111083984	70.7208023071289	85.57514953613281	76.41840362548828	70.38126373291016	95.52386474609375	81.4756851196289	38.09731674194336	59.46279525756836	47.79153823852539	21.458242416381836	57.840972900390625	70.82192993164062	77.49507904052734	37.27260208129883	48.871246337890625	151.9141845703125	83.90287780761719	89.82276916503906	94.29903411865234	119.9722900390625	84.13191223144531	38.18674850463867	52.72954177856445	64.43305206298828	75.09247589111328	40.74336242675781	64.02449035644531	53.37669372558594	25.58271598815918	113.68893432617188	73.36872100830078	30.929887771606445	106.4428939819336	42.40304183959961	61.18051528930664	54.477455139160156	78.49080657958984	69.84703826904297	67.61235809326172	36.95852279663086	101.71820831298828	67.86417388916016	102.28176879882812	46.644527435302734	76.2865219116211	78.725341796875	41.7696533203125	58.52156448364258	69.56146240234375	40.18483352661133	64.5550308227539	30.10236167907715	53.38845443725586	50.49767303466797	57.1339225769043	42.5181770324707	52.4139518737793	64.06674194335938	37.453426361083984	94.08699035644531	33.98556137084961	58.233741760253906	91.9954605102539	70.73621368408203	48.04133224487305	35.208492279052734	88.36907196044922	50.84233093261719	58.087440490722656	58.129249572753906	125.01934051513672	39.98115921020508	91.44293975830078	41.52433776855469	98.398193359375	48.514434814453125	68.5254135131836	50.94955825805664	35.42811584472656	74.94662475585938	64.6283950805664	64.02154541015625	67.53659057617188	36.75809860229492	55.22503662109375	54.36528396606445	26.910554885864258	62.80899429321289	60.946956634521484	44.61884689331055	48.030433654785156	61.902442932128906	69.58075714111328	154.0312957763672	45.36451721191406	77.39376068115234
30	60	2761.946533203125	2420.192626953125	3288.5068359375	3808.144287109375	3524.3525390625	4365.19091796875	3110.78564453125	3106.280029296875	3716.404052734375	2694.325439453125	2193.8330078125	4138.0849609375	3313.39111328125	2805.90087890625	2720.139892578125	2600.091064453125	3380.59716796875	4007.820068359375	3212.295166015625	4436.5556640625	2958.889892578125	3169.251708984375	3021.62451171875	3390.414794921875	3670.955078125	2537.427734375	1175.0562744140625	1279.8382568359375	4114.3427734375	2888.551025390625	3467.087158203125	794.0521850585938	3839.025634765625	3772.946044921875	4122.85205078125	4395.22509765625	2899.878173828125	3373.780029296875	3243.167236328125	3115.43798828125	4169.7421875	3195.396484375	4133.32421875	4037.166748046875	3937.570068359375	3325.256103515625	3538.879150390625	3848.226806640625	4049.44677734375	4045.658935546875	4002.201904296875	4555.82275390625	3559.011962890625	4291.56103515625	3606.33740234375	4583.68408203125	3984.626220703125	3802.561279296875	4042.943359375	3345.275390625	4121.31396484375	3714.714111328125	4983.15478515625	2463.1162109375	4862.1298828125	3704.140380859375	4182.92041015625	4055.916259765625	3612.9794921875	4394.23095703125	2613.589599609375	3535.628662109375	3354.75390625	3177.169189453125	4411.947265625	3296.39306640625	3763.4794921875	4188.779296875	4149.33837890625	3570.38818359375	3491.17041015625	3976.515380859375	3490.369384765625	4357.203125	3825.20361328125	5361.810546875	3424.494140625	4081.491943359375	3463.009765625	4315.4970703125	4124.37060546875	3744.97607421875	4013.16552734375	3298.70263671875	3884.648193359375	3668.759521484375	4409.05712890625	2855.86376953125	4613.0771484375	3903.4404296875
60	90	10068.404296875	10258.6748046875	12810.09765625	15671.3291015625	13751.2197265625	17487.087890625	10515.240234375	11374.0205078125	12423.380859375	12605.5732421875	7817.0966796875	16415.794921875	12764.1142578125	9622.970703125	10027.84375	10014.115234375	13169.6953125	14866.62890625	12439.705078125	17132.791015625	13273.3291015625	11412.5830078125	12526.607421875	14794.328125	12571.0595703125	8557.705078125	4080.79931640625	4356.431640625	12997.6015625	11714.79296875	11948.7841796875	2688.05322265625	13505.3408203125	13382.990234375	14898.1748046875	15600.1875	9337.28125	13053.025390625	13261.1474609375	11740.5107421875	14976.064453125	11957.7236328125	13323.81640625	14768.56640625	14508.00390625	12238.197265625	12341.009765625	14275.2392578125	14408.220703125	14470.1875	13995.5400390625	18454.759765625	12913.068359375	15213.9208984375	13335.2353515625	15897.4267578125	14023.69921875	13855.6376953125	14550.9951171875	12590.939453125	13327.7900390625	13319.1748046875	16943.33984375	10513.0654296875	16583.33984375	13709.576171875	13857.32421875	14730.3896484375	14072.4873046875	16174.9736328125	9522.1630859375	13648.2705078125	12470.9541015625	11925.4306640625	15047.03125	12465.287109375	13918.591796875	15039.1455078125	13925.62109375	12348.5908203125	11994.9638671875	14053.4482421875	13450.001953125	14779.306640625	13775.5458984375	18190.33984375	12740.7880859375	15249.796875	12917.2490234375	15356.7890625	12614.4921875	14127.1650390625	14754.884765625	12479.1591796875	12896.96484375	12779.2724609375	15069.302734375	9350.2646484375	16968.095703125	14363.0400390625
90	120	18979.697265625	19491.76171875	24534.04296875	29197.669921875	24375.302734375	30858.447265625	21848.296875	20785.671875	23189.216796875	21378.29296875	14285.0302734375	28662.068359375	23460.427734375	16784.603515625	19198.060546875	18973.986328125	24922.251953125	27281.375	24419.83984375	32828.7109375	24358.53515625	21864.771484375	20427.9296875	30476.171875	22354.619140625	15944.62890625	7438.92236328125	7703.06396484375	25373.869140625	19949.322265625	22137.5390625	4680.83154296875	25276.173828125	25018.296875	27186.162109375	27278.2578125	18265.603515625	25357.796875	24376.921875	23822.751953125	28719.568359375	22531.4765625	26046.32421875	28088.146484375	26233.37109375	23688.337890625	23845.97265625	27184.9765625	26334.92578125	26232.66015625	26509.388671875	33592.21875	24871.51171875	28686.15234375	25798.427734375	29171.322265625	24104.19921875	26792.841796875	27083.83984375	24116.875	24676.50390625	24739.3046875	30630.2265625	20729.533203125	30567.435546875	25872.173828125	25929.91796875	27505.470703125	26005.41015625	29090.943359375	21390.802734375	25655.44921875	24240.513671875	24319.982421875	27617.396484375	23305.322265625	26292.638671875	28628.396484375	27791.234375	25070.34765625	22085.087890625	26516.17578125	25208.419921875	28054.544921875	27168.3984375	33628.24609375	24635.458984375	29268.80078125	24850.673828125	30431.330078125	21922.38671875	26872.658203125	28153.58984375	23855.501953125	24154.869140625	24279.896484375	29555.423828125	17810.916015625	28588.19140625	24505.74609375
120	150	27391.05859375	28222.5078125	35733.35546875	42132.23828125	36189.44921875	46121.09375	31976.779296875	30744.4921875	32552.16015625	30631.556640625	20095.802734375	44427.08203125	31954.818359375	24181.228515625	27246.845703125	27217.3125	36304.0625	41427.453125	35730.28515625	46031.859375	33681.91015625	30663.365234375	30140.41015625	41726.51953125	32735.189453125	22108.890625	10673.3935546875	10604.2294921875	36596.91015625	31006.173828125	30834.744140625	6430.28857421875	35784.51171875	34759.9921875	39948.48046875	41063.2109375	28312.263671875	36377.57421875	35506.58203125	34102.7890625	38259.5859375	33389.921875	37508.77734375	41110.6796875	35303.52734375	34090.4921875	33349.59375	38927.875	37310.3046875	38719.41796875	37246.90234375	50068.265625	35006.59765625	42201.51953125	36484.4921875	41959.9296875	35532.796875	38335.4921875	38452.95703125	35717.96484375	34544.609375	35984.68359375	41072.87890625	30298.240234375	40663.48046875	35050.2421875	38602.11328125	38908.82421875	37937.84765625	42408.296875	27776.537109375	35820.41015625	34971.26171875	34389.6015625	39248.44140625	34506.98828125	36864.03125	41143.48828125	39470.08203125	35111.61328125	32144.013671875	38289.5703125	37292.3828125	39341.0390625	38445.9140625	49478.41796875	35049.3984375	41473.17578125	35659.015625	42147.79296875	30660.271484375	38594.109375	40247.1796875	34332.4921875	34085.0546875	34781.9453125	40622.9375	26492.794921875	40752.21875	34593.87109375
150	180	30923.62890625	31557.935546875	41006.9609375	44977.58984375	40268.89453125	50402.23828125	35451.27734375	33154.1015625	35477.3203125	36418.14453125	21848.607421875	47829.640625	33773.17578125	27570.70703125	30662.169921875	31169.1640625	41320.80859375	45179.48828125	39382.3828125	51612.8359375	37036.6640625	34504.67578125	31625.0859375	48197.5	33978.16796875	23705.88671875	11534.6337890625	11442.439453125	40986.47265625	34063.8515625	33774.2265625	7025.19677734375	39829.484375	38770.9765625	43901.83984375	44344.20703125	30080.306640625	39836.5078125	40024.88671875	38714.8359375	41302.7578125	37845.984375	41264.46484375	46332.62109375	40531.296875	38458.390625	36963.69140625	42711.63671875	42451.890625	41746.125	42922.875	55276.01953125	39263.08984375	46036.5390625	40766.17578125	47106.20703125	38038.47265625	43643.7109375	42582.02734375	40227.44140625	38159.24609375	39778.9140625	46409.87109375	32328.72265625	47681.24609375	40592.89453125	43039.24609375	42627.7421875	42159.83984375	48391.9921875	32597.0546875	39863.07421875	39396.0625	38435.796875	43390.8515625	39611.0703125	41468.4453125	46297.57421875	44115.5703125	40852.015625	36226.61328125	43646.39453125	42468.16015625	43590.515625	43376.44140625	53329.22265625	38720.66015625	45626.140625	40322.4140625	47595.05859375	34895.15234375	43531.4609375	44611.60546875	38855.453125	38026.078125	38241.4765625	48321.9296875	29681.46875	46805.23828125	38772.54296875
180	240	31791.673828125	32514.873046875	41798.36328125	47011.3984375	41161.29296875	52400.671875	36228.6953125	34332.73828125	35456.05078125	35218.6328125	21478.298828125	46280.9296875	35429.65625	25124.80078125	31504.203125	32189.763671875	42573.8125	46240.4296875	39508.3046875	50920.046875	39899.26171875	33467.546875	34115.6171875	48468.13671875	35572.4921875	24561.8359375	11752.4150390625	11683.6455078125	43153.9140625	34635.01171875	33842.2265625	7250.9560546875	41016.3671875	38981.1953125	44631.26953125	44830.0546875	32931.0	41067.01171875	40473.953125	40332.27734375	43528.171875	39063.3359375	42225.5859375	45614.30078125	40349.90234375	39154.546875	37866.48046875	42700.734375	42993.76953125	41279.52734375	42282.5625	55960.41796875	40404.65234375	47043.3046875	41834.484375	48162.78515625	38258.5078125	43893.22265625	44141.90625	40519.48046875	39454.41796875	40526.98046875	46949.65625	34205.52734375	45487.80078125	39781.98046875	42499.37109375	42869.7265625	42347.85546875	48925.19921875	32426.3125	42544.3671875	40316.12109375	40551.5625	42948.328125	40485.4609375	41827.45703125	46463.40625	45344.21484375	40770.53125	35757.4375	44173.69140625	41424.16015625	44199.83984375	44444.37890625	54627.1796875	39528.71484375	47650.453125	40203.625	47676.953125	35311.15625	44524.3671875	45680.22265625	39477.29296875	39251.00390625	39307.05859375	48313.86328125	30091.544921875	44875.265625	40135.2421875
240	300	31016.87109375	32445.76953125	40993.80078125	46389.88671875	38954.25	50991.05859375	37125.88671875	34056.94921875	35259.265625	33459.734375	20921.892578125	47004.74609375	34912.83203125	23483.9375	30849.591796875	31302.001953125	40984.23046875	45545.6328125	38006.41796875	50914.9140625	39752.19921875	31803.779296875	33380.92578125	46370.1875	35381.88671875	21562.91015625	11481.5009765625	11561.4150390625	41734.8984375	33672.73046875	32462.1875	7376.52978515625	40941.79296875	38808.1328125	43320.3359375	43053.3828125	33215.4296875	41134.9921875	38998.15625	39698.6171875	40711.7109375	37481.09375	40664.3828125	44359.26953125	39496.4453125	38525.6953125	36680.609375	41706.484375	40725.6328125	39619.671875	40191.26953125	52668.87109375	38785.21875	45624.8125	40005.67578125	45773.5	38992.46484375	42543.54296875	41850.83984375	39166.62109375	38397.40625	39185.94921875	45068.21875	35002.1015625	43669.828125	39744.62890625	42038.75390625	42404.11328125	41204.96875	47005.06640625	31525.25	40837.765625	39001.44140625	39689.55078125	41556.81640625	38708.70703125	41426.796875	44548.234375	43700.140625	39292.5546875	35384.2578125	42132.62109375	39902.6796875	42866.16796875	41897.73046875	52455.4140625	37647.98828125	45460.625	38596.2265625	45474.9375	33688.59765625	42860.7578125	43370.64453125	38039.22265625	38277.9609375	37986.56640625	45933.32421875	30041.93359375	42539.6328125	38298.01171875
300	360	29887.240234375	31462.064453125	38788.75	43967.31640625	37161.6640625	46832.51953125	35472.546875	31633.087890625	34124.37109375	33878.8046875	20108.169921875	43574.3359375	34208.5390625	22302.28125	29580.412109375	30709.95703125	39629.15234375	43900.1484375	35752.08203125	48484.10546875	39108.4296875	31420.2109375	31635.7421875	43704.8828125	33873.66015625	22305.517578125	11247.5205078125	11249.28125	38108.46875	32688.896484375	30359.865234375	7423.12548828125	38890.44921875	37356.22265625	40310.69140625	38683.65234375	32429.091796875	38453.49609375	36344.94921875	37595.73046875	38484.6875	35311.01171875	38128.859375	41426.625	38227.40625	36367.26171875	35545.28515625	39898.33203125	38853.44921875	37456.12109375	37962.4375	47604.20703125	35912.6796875	44347.7421875	37115.8359375	42047.875	37033.9453125	39769.28515625	39338.06640625	36293.3984375	36367.9765625	36911.703125	40960.33984375	31991.625	40189.9453125	36639.78515625	39899.87890625	39436.6328125	38212.18359375	43060.30078125	30271.05859375	38091.625	36354.64453125	37734.16015625	39513.96875	36486.3125	39018.9453125	41153.17578125	41781.04296875	37027.2578125	34113.65234375	39581.8984375	38116.125	40310.45703125	39372.90234375	45737.34375	35621.984375	43272.671875	36345.546875	42204.875	32753.080078125	40084.62109375	40166.37890625	35355.01953125	35763.1875	35377.92578125	42240.90625	28897.96484375	39788.484375	36928.7890625
360	480	27327.943359375	29308.1328125	35513.98046875	40923.92578125	31951.150390625	42169.9453125	34189.15625	30102.212890625	30321.509765625	30455.005859375	18171.201171875	39363.09765625	31810.439453125	19800.517578125	27163.03515625	28630.009765625	35530.59375	39134.33984375	31818.66015625	43058.06640625	37146.9765625	28451.892578125	29531.67578125	39857.64453125	32099.240234375	19261.27734375	10672.88671875	10739.3427734375	36303.46484375	30272.064453125	26957.337890625	7426.4248046875	34940.7578125	33135.8203125	35302.5078125	34142.57421875	28992.99609375	34299.30078125	32410.916015625	34042.48046875	33244.8828125	30969.251953125	34754.28515625	35593.07421875	34267.46875	32271.03125	32312.65234375	34890.7734375	34551.9453125	33643.53515625	33456.5546875	40517.5234375	32153.83203125	37403.15625	33083.8359375	36810.921875	33484.57421875	35241.23046875	35318.203125	31897.81640625	32571.658203125	32843.19140625	36713.58203125	30173.048828125	35752.8359375	34469.66015625	35161.81640625	34290.75390625	33939.76953125	37731.734375	27113.623046875	35349.82421875	32016.076171875	34342.46484375	34262.9921875	31640.625	35868.9921875	36491.89453125	37152.09765625	33289.8125	30772.84375	35067.859375	33495.95703125	34463.078125	34190.0546875	40544.13671875	31508.63671875	36293.93359375	32279.462890625	36742.796875	30146.263671875	35798.20703125	35783.75390625	31206.58984375	32338.02734375	31344.3125	39808.4921875	29264.068359375	34331.078125	33214.80859375
480	600	24535.55078125	26628.326171875	30528.1953125	34991.90625	27092.333984375	36454.23046875	30548.41015625	26646.501953125	26918.63671875	28316.869140625	16136.5048828125	34516.61328125	29687.9140625	17203.09765625	24319.68359375	26112.0234375	30782.4296875	34935.1953125	25927.890625	35473.94140625	31737.859375	24298.119140625	26234.865234375	32969.53125	29432.4296875	17701.703125	9913.0009765625	10107.6787109375	31176.87890625	27817.98828125	23190.892578125	7488.15673828125	29963.458984375	27814.1171875	29756.2734375	27958.6875	24808.84765625	30193.91796875	26986.572265625	29141.11328125	28258.1484375	25999.7421875	30180.1328125	30410.71484375	29321.95703125	27857.20703125	28123.859375	29556.115234375	28899.994140625	28624.78515625	28101.798828125	33297.94140625	27246.9296875	30958.548828125	28157.380859375	31040.77734375	28687.47265625	29550.9296875	29848.951171875	27198.732421875	28073.087890625	27544.34375	30930.984375	28276.857421875	30950.017578125	29786.48828125	29716.935546875	30364.466796875	28462.970703125	31234.8671875	24425.34765625	30828.369140625	27380.970703125	29838.828125	29718.11328125	27629.05859375	31079.478515625	30642.796875	31522.96875	28670.791015625	27823.822265625	30052.6484375	28540.0859375	30059.162109375	29747.091796875	32862.625	26960.33203125	31158.193359375	27660.30078125	31026.994140625	26788.619140625	30435.767578125	30504.43359375	26693.341796875	27785.88671875	26954.697265625	33299.73828125	27030.169921875	27770.11328125	29809.193359375
600	900	20936.099609375	23352.798828125	23769.884765625	27817.24609375	20954.419921875	27745.921875	27205.359375	22314.83984375	22106.966796875	23949.728515625	13442.4482421875	26521.29296875	24564.255859375	13902.1142578125	20570.287109375	22817.353515625	23836.470703125	27827.013671875	19410.890625	27544.787109375	27066.365234375	20402.734375	22509.025390625	26084.33984375	25035.853515625	14103.6005859375	8923.6767578125	9179.0654296875	23852.025390625	23652.736328125	18262.22265625	7500.0478515625	24270.83203125	23194.025390625	23227.638671875	21638.767578125	21031.978515625	24131.9296875	20738.986328125	23770.03515625	22370.724609375	20607.873046875	23502.873046875	23519.533203125	23654.75	21726.06640625	22680.8515625	23071.599609375	22661.26171875	21307.306640625	21572.404296875	24479.064453125	21083.826171875	24557.26953125	22132.080078125	23803.23046875	23433.146484375	22893.46875	23405.599609375	21220.123046875	22691.9140625	21291.015625	25186.236328125	24573.876953125	24118.798828125	24528.4140625	23034.43359375	24273.77734375	22643.615234375	23832.087890625	20536.716796875	24287.302734375	21539.75	23887.615234375	22395.484375	21681.91796875	24783.5859375	23825.345703125	25278.478515625	22805.0	22542.787109375	22768.5	22707.681640625	23827.880859375	23613.32421875	24103.1015625	21287.248046875	24489.255859375	22140.48828125	23564.541015625	22851.115234375	24023.962890625	23858.599609375	20797.681640625	22131.763671875	21450.474609375	23845.09765625	23549.6015625	21974.599609375	24040.978515625
900	1200	17515.37890625	19157.107421875	17375.31640625	20631.75	14547.828125	20599.466796875	22572.3671875	18048.64453125	17633.47265625	19310.5703125	10893.9326171875	19056.861328125	20066.921875	11630.3662109375	17354.84765625	18983.837890625	17442.654296875	20584.509765625	14773.466796875	20681.1171875	22239.6875	16314.216796875	17461.193359375	19649.431640625	20581.060546875	11836.7724609375	8128.927734375	8403.970703125	18043.646484375	19760.4296875	13943.5966796875	7532.71240234375	18461.501953125	17781.84375	17940.6328125	16894.421875	17072.177734375	18736.45703125	16093.4951171875	18323.53515625	17315.5625	15947.2021484375	18650.439453125	17969.888671875	18251.7421875	16687.939453125	17581.404296875	17677.71484375	17684.033203125	16737.85546875	17237.767578125	18352.91015625	16516.396484375	18837.5390625	17226.634765625	18026.72265625	18283.828125	17765.24609375	17844.5390625	16257.4365234375	17447.607421875	16530.47265625	17423.48046875	19380.880859375	18648.634765625	19768.021484375	18007.474609375	18523.001953125	17303.662109375	18283.54296875	16300.642578125	19040.55859375	16285.6181640625	18633.080078125	17155.328125	16439.40625	19466.841796875	18025.921875	19159.52734375	17404.01953125	17525.38671875	17258.234375	17310.078125	17515.8984375	17219.2734375	18191.931640625	16137.3662109375	18858.630859375	16833.248046875	17683.53515625	18050.154296875	18028.578125	18051.8984375	15698.6796875	16914.251953125	16202.873046875	18604.4140625	19825.703125	16968.673828125	19147.794921875
1200	1500	15617.677734375	16799.6171875	13753.6787109375	16412.240234375	11911.9501953125	16810.21875	19084.703125	15180.765625	14441.59375	15620.283203125	9449.9931640625	14492.4208984375	16698.64453125	10423.048828125	15474.8564453125	16583.296875	13787.6748046875	16326.3837890625	11881.697265625	16439.560546875	18409.763671875	13795.095703125	14701.921875	15499.2001953125	16800.1875	10022.087890625	7549.34814453125	7869.69580078125	14303.892578125	17064.796875	11621.2890625	7530.17626953125	16009.7216796875	15278.6630859375	15152.6103515625	14145.9443359375	14412.1767578125	15726.896484375	13617.9384765625	15668.560546875	14224.1337890625	13805.2509765625	15831.552734375	15076.9189453125	15130.7119140625	14080.9296875	14637.056640625	14430.7099609375	14985.107421875	14648.203125	14861.49609375	15523.1435546875	13918.2138671875	15709.771484375	14486.775390625	15038.7333984375	15353.462890625	14902.3154296875	14924.451171875	13653.3525390625	14611.5888671875	14175.0126953125	14948.0380859375	16406.265625	15516.26953125	16370.3623046875	15680.7822265625	15309.73828125	14433.3017578125	15079.15234375	13217.83984375	15892.8984375	13638.9560546875	15587.4228515625	14315.658203125	14028.1923828125	16392.3984375	15093.392578125	15936.13671875	14532.0029296875	14568.2255859375	14368.6904296875	14439.6943359375	14807.30078125	14241.703125	15506.94921875	13524.990234375	15720.6875	13900.80078125	14836.025390625	15529.1748046875	14867.4912109375	15035.125	13217.4208984375	14048.5654296875	13696.3828125	15282.6787109375	16618.08203125	14445.759765625	16078.9296875
1500	1800	14304.21875	14654.4794921875	11464.291015625	13459.1787109375	10076.373046875	14227.15625	16166.361328125	13172.84375	12392.9560546875	13913.125	8562.4921875	11733.1318359375	14185.236328125	9273.4169921875	14170.759765625	14654.53515625	11417.625	13284.55078125	10408.0849609375	14090.4609375	15540.9365234375	11521.080078125	13188.1591796875	12152.8798828125	14794.0703125	8806.8056640625	7314.47998046875	7551.63232421875	11877.8671875	14880.5625	10268.7578125	7529.67236328125	13438.646484375	13189.9658203125	13343.8603515625	12767.208984375	12743.306640625	13799.8642578125	12175.2001953125	13602.974609375	12629.2890625	12273.38671875	14013.01171875	13284.0458984375	13062.501953125	12327.70703125	12639.8408203125	12328.2998046875	13440.3828125	12563.46875	12810.142578125	13856.18359375	12346.759765625	13875.0517578125	12777.1533203125	13255.7568359375	13425.8115234375	13136.3447265625	13114.9228515625	12147.3896484375	12828.9599609375	12722.2001953125	12865.0263671875	14173.45703125	13694.478515625	14393.8828125	13324.0751953125	13838.7802734375	12915.5068359375	13548.455078125	11941.2763671875	14212.08203125	12147.4951171875	13849.94140625	12613.65625	12683.9072265625	14512.3486328125	13601.9072265625	13850.3544921875	12551.2939453125	12577.2060546875	12612.015625	12516.265625	12963.3603515625	12667.765625	14386.697265625	12033.638671875	13465.3134765625	12492.419921875	13147.6728515625	13877.4248046875	13200.83984375	13322.58203125	11610.0869140625	12404.326171875	12059.611328125	13444.01171875	15110.1826171875	12548.412109375	14070.73828125
1800	2100	13205.650390625	12993.931640625	9842.130859375	11345.3369140625	9396.6142578125	12309.3876953125	13972.701171875	11366.755859375	10991.4638671875	11986.1279296875	8019.84521484375	9373.9541015625	12836.2861328125	8736.185546875	13084.8955078125	13063.556640625	9782.2060546875	11273.8603515625	8998.3720703125	12528.3095703125	13895.53515625	10728.2294921875	11897.2021484375	10286.541015625	12747.4970703125	8300.3955078125	7011.71484375	7297.97998046875	10255.6630859375	13197.34765625	9380.2841796875	7475.3349609375	12458.3857421875	11807.904296875	12031.5537109375	11719.435546875	10401.2822265625	12573.638671875	11108.701171875	12391.837890625	11416.0126953125	11312.3203125	12528.18359375	12457.9736328125	11841.2998046875	11199.37109375	11621.5703125	11655.478515625	11854.8525390625	11453.45703125	11797.3681640625	12884.265625	11245.8935546875	12212.6064453125	11801.259765625	12211.7421875	12150.087890625	11862.0751953125	11873.0732421875	10805.09765625	11581.0244140625	11654.8466796875	11305.1826171875	12730.376953125	12664.5673828125	12855.5673828125	12599.5732421875	12028.568359375	11526.2158203125	11964.853515625	10540.0341796875	12679.919921875	10989.404296875	12356.65234375	11598.8017578125	11419.5166015625	13100.732421875	12356.1259765625	12379.908203125	11398.7177734375	11527.4541015625	11519.3271484375	11742.5810546875	11600.927734375	11596.16796875	13092.314453125	11073.724609375	12225.794921875	11452.4970703125	11632.658203125	12535.3603515625	12008.939453125	11985.1572265625	10512.6357421875	11177.30078125	11114.775390625	12224.0224609375	13615.1689453125	11680.73046875	12721.099609375
2100	2400	12256.572265625	11697.01171875	8516.9638671875	10070.54296875	8194.4677734375	11003.9443359375	12439.966796875	10325.9794921875	9737.927734375	10724.087890625	7403.3369140625	8413.576171875	11307.3310546875	7906.5302734375	12131.1728515625	11524.8408203125	8503.330078125	9421.0380859375	8136.22998046875	11435.3134765625	12694.966796875	9043.501953125	10148.1806640625	8645.298828125	11476.3701171875	7587.51171875	6602.6650390625	7048.58984375	9047.7666015625	12346.484375	8644.1875	7366.4345703125	11344.9853515625	11447.794921875	10989.875	10715.3115234375	9328.830078125	11666.390625	10368.46484375	11294.0263671875	10531.291015625	10489.4169921875	11333.8857421875	11393.263671875	10447.560546875	10179.173828125	10371.6474609375	10716.6064453125	10905.578125	10771.826171875	10614.7119140625	11921.8642578125	10345.650390625	11827.333984375	10561.51171875	10973.580078125	10901.44140625	10992.30078125	10862.0322265625	10191.119140625	10611.1318359375	10730.6318359375	10584.68359375	11438.2548828125	11344.7353515625	11755.7568359375	11048.32421875	10927.3564453125	10516.1787109375	11011.1826171875	9612.7607421875	11767.9638671875	10087.2333984375	11217.7998046875	10306.6025390625	10554.3779296875	11591.58203125	11527.5107421875	11110.7724609375	10301.4794921875	10113.0078125	10044.51953125	10622.048828125	10655.8212890625	10535.09375	12171.875	10196.0302734375	11274.7783203125	10326.775390625	10668.185546875	11776.2900390625	10988.0517578125	10870.2294921875	9746.3125	10418.2568359375	10295.32421875	11137.6708984375	12078.2802734375	10790.9609375	11371.1806640625
2400	2700	11469.2451171875	10331.283203125	7510.44970703125	8593.107421875	7258.7607421875	9985.7734375	11792.771484375	9122.068359375	8709.607421875	8871.7626953125	6865.5556640625	7488.97265625	9834.6787109375	7509.6396484375	11320.5986328125	10470.8564453125	7472.80810546875	8594.8095703125	7815.92041015625	10267.8056640625	10632.828125	8733.19140625	9513.380859375	8034.6923828125	9691.4287109375	7332.166015625	6514.35693359375	6817.369140625	7807.93310546875	10431.99609375	8023.0595703125	7282.32763671875	10884.4287109375	9925.6513671875	10480.373046875	9807.2431640625	8507.548828125	11021.966796875	9744.9189453125	10520.4921875	9701.6064453125	9819.779296875	10832.185546875	10705.0234375	9735.2421875	9392.6533203125	9719.875	9912.671875	10691.76953125	10338.2646484375	10140.396484375	11143.40625	9617.623046875	10649.5537109375	9809.1591796875	10347.2939453125	10048.5087890625	10145.5771484375	9949.8203125	9302.474609375	9741.134765625	10060.951171875	10203.4560546875	9632.8134765625	10682.4267578125	11045.693359375	10903.8974609375	10476.025390625	9916.6962890625	10511.8056640625	8545.28515625	10947.7822265625	9624.7978515625	10679.4072265625	9766.0185546875	9912.76953125	10942.8779296875	10719.3466796875	10410.9970703125	9533.2783203125	9382.47265625	9733.0029296875	9941.6279296875	9590.0693359375	9999.455078125	11410.498046875	9512.9658203125	10729.3974609375	9507.6474609375	9992.8447265625	10285.826171875	10138.0322265625	10073.99609375	9315.51953125	9413.396484375	9621.009765625	10512.662109375	11141.1826171875	10085.900390625	10712.357421875
