frame_start	frame_end	Left-Cerebral-White-Matter	Left-Cerebellum-White-Matter	Left-Cerebellum-Cortex	Left-Thalamus	Left-Caudate	Left-Putamen	Left-Pallidum	Brain-Stem	Left-Hippocampus	Left-Amygdala	CSF	Left-Accumbens-area	Left-VentralDC	Left-choroid-plexus	Right-Cerebral-White-Matter	Right-Cerebellum-White-Matter	Right-Cerebellum-Cortex	Right-Thalamus	Right-Caudate	Right-Putamen	Right-Pallidum	Right-Hippocampus	Right-Amygdala	Right-Accumbens-area	Right-VentralDC	Right-choroid-plexus	AirCavity	Skull	Vermis	Pons	CSF-ExtraCerebral	Head-ExtraCerebral	ctx-lh-bankssts	ctx-lh-caudalanteriorcingulate	ctx-lh-caudalmiddlefrontal	ctx-lh-cuneus	ctx-lh-entorhinal	ctx-lh-fusiform	ctx-lh-inferiorparietal	ctx-lh-inferiortemporal	ctx-lh-isthmuscingulate	ctx-lh-lateraloccipital	ctx-lh-lateralorbitofrontal	ctx-lh-lingual	ctx-lh-medialorbitofrontal	ctx-lh-middletemporal	ctx-lh-parahippocampal	ctx-lh-paracentral	ctx-lh-parsopercularis	ctx-lh-parsorbitalis	ctx-lh-parstriangularis	ctx-lh-pericalcarine	ctx-lh-postcentral	ctx-lh-posteriorcingulate	ctx-lh-precentral	ctx-lh-precuneus	ctx-lh-rostralanteriorcingulate	ctx-lh-rostralmiddlefrontal	ctx-lh-superiorfrontal	ctx-lh-superiorparietal	ctx-lh-superiortemporal	ctx-lh-supramarginal	ctx-lh-frontalpole	ctx-lh-temporalpole	ctx-lh-transversetemporal	ctx-lh-insula	ctx-rh-bankssts	ctx-rh-caudalanteriorcingulate	ctx-rh-caudalmiddlefrontal	ctx-rh-cuneus	ctx-rh-entorhinal	ctx-rh-fusiform	ctx-rh-inferiorparietal	ctx-rh-inferiortemporal	ctx-rh-isthmuscingulate	ctx-rh-lateraloccipital	ctx-rh-lateralorbitofrontal	ctx-rh-lingual	ctx-rh-medialorbitofrontal	ctx-rh-middletemporal	ctx-rh-parahippocampal	ctx-rh-paracentral	ctx-rh-parsopercularis	ctx-rh-parsorbitalis	ctx-rh-parstriangularis	ctx-rh-pericalcarine	ctx-rh-postcentral	ctx-rh-posteriorcingulate	ctx-rh-precentral	ctx-rh-precuneus	ctx-rh-rostralanteriorcingulate	ctx-rh-rostralmiddlefrontal	ctx-rh-superiorfrontal	ctx-rh-superiorparietal	ctx-rh-superiortemporal	ctx-rh-supramarginal	ctx-rh-frontalpole	ctx-rh-temporalpole	ctx-rh-transversetemporal	ctx-rh-insula
0	30	474.6409912109375	557.4534301757812	596.0938110351562	659.9223022460938	566.744140625	780.7337036132812	351.6512451171875	547.0546264648438	565.7808227539062	788.3092651367188	449.8013916015625	885.5082397460938	1063.9442138671875	747.56201171875	470.8350524902344	442.2283020019531	590.378662109375	560.107421875	659.6857299804688	676.2055053710938	553.253173828125	575.5791015625	430.54559326171875	827.5348510742188	787.9306030273438	347.94415283203125	106.48639678955078	230.80154418945312	605.3477783203125	508.8059387207031	702.3624877929688	179.630615234375	798.8936157226562	628.7217407226562	691.075927734375	636.0206909179688	331.23883056640625	497.3782043457031	624.1882934570312	400.20440673828125	599.747314453125	537.8358764648438	736.7296752929688	780.37939453125	922.9481811523438	431.2671813964844	409.47998046875	589.7434692382812	855.1841430664062	504.3895263671875	707.1908569335938	868.9302978515625	648.0159301757812	616.1055297851562	621.2599487304688	637.2366943359375	867.635986328125	640.1612548828125	658.7816162109375	529.1723022460938	593.6162109375	786.795654296875	606.412841796875	299.9976806640625	938.1742553710938	1210.43310546875	804.0004272460938	867.2224731445312	669.7940063476562	836.1289672851562	604.5864868164062	652.2098999023438	535.35205078125	408.31304931640625	881.4427490234375	572.7278442382812	921.925048828125	741.4824829101562	836.2507934570312	505.7146911621094	569.5322875976562	600.7781372070312	858.089111328125	512.8616943359375	841.8367309570312	707.071533203125	686.1980590820312	731.9855346679688	632.0133056640625	730.5516967773438	1191.9923095703125	634.4666137695312	795.7908935546875	509.469970703125	821.3054809570312	680.0426025390625	552.5784912109375	365.63275146484375	984.8079223632812	1006.6751098632812
30	60	5884.65283203125	6737.16650390625	8352.4111328125	8169.01513671875	8734.61328125	8759.7431640625	6494.060546875	6611.947265625	6311.23388671875	5587.24365234375	5942.224609375	8490.802734375	7312.287109375	7243.9482421875	5662.51025390625	6735.7255859375	8389.16015625	8346.6982421875	6871.162109375	8944.830078125	6159.5126953125	6728.6875	7014.74609375	8485.8798828125	6816.63916015625	6174.9609375	1689.6142578125	2811.847900390625	9352.845703125	6474.32861328125	7826.73876953125	2436.3916015625	8170.12158203125	6257.908203125	8327.185546875	9173.55078125	5287.7060546875	7487.27099609375	7659.53955078125	6295.80908203125	7691.63330078125	7280.564453125	7519.693359375	9369.224609375	8091.3642578125	6126.087890625	6729.16845703125	7173.08740234375	9386.8515625	5291.15673828125	7512.3037109375	10868.091796875	7746.80908203125	7430.427734375	8050.73876953125	8482.8095703125	8134.4091796875	7962.60009765625	8147.66650390625	7490.96728515625	7004.06494140625	8064.93896484375	7348.2646484375	4790.4697265625	10235.9951171875	8953.904296875	8914.8505859375	8030.58349609375	8222.9833984375	10052.29296875	5298.591796875	7274.48095703125	7633.53662109375	6127.56884765625	8703.599609375	7885.43896484375	8153.89794921875	9261.76953125	8564.400390625	7354.14599609375	7103.4169921875	8904.5869140625	9665.9755859375	6662.1689453125	9797.79296875	11203.921875	7922.55517578125	9546.36328125	7884.81640625	9073.1748046875	9719.7861328125	8447.3955078125	8839.205078125	6919.11962890625	8293.396484375	7841.0771484375	8178.26171875	5286.66650390625	10332.880859375	8514.15234375
60	90	13916.3701171875	15680.5126953125	19970.0625	19328.4609375	19112.8359375	22181.484375	15496.8759765625	14067.4443359375	15781.064453125	14493.021484375	13115.826171875	20401.572265625	16848.90625	17321.630859375	13824.0458984375	16009.466796875	19536.609375	20374.8359375	17672.685546875	20374.57421875	14706.1708984375	16710.79296875	14120.9384765625	16773.67578125	16669.916015625	13813.314453125	3572.40185546875	6217.94775390625	21283.30078125	15308.669921875	17707.265625	5427.06005859375	20493.19921875	17014.9296875	20977.126953125	23752.03515625	14755.1240234375	17849.720703125	18959.828125	15801.58203125	19185.087890625	18704.76171875	18649.212890625	22782.2421875	19334.693359375	16140.259765625	15481.939453125	19755.314453125	22390.1875	15409.8525390625	20624.595703125	28227.138671875	18600.384765625	19526.505859375	19617.7265625	21533.26953125	19929.4140625	20159.85546875	20902.431640625	18414.173828125	17970.767578125	19912.2890625	19164.083984375	12161.6083984375	23234.955078125	20319.099609375	21246.90234375	19153.052734375	21406.953125	24312.669921875	13820.9814453125	17915.3125	18679.47265625	15074.5966796875	20155.8046875	19631.30078125	19110.1015625	21799.427734375	20440.064453125	17208.263671875	16161.7724609375	20397.474609375	23948.716796875	17595.75	22243.904296875	27645.388671875	19276.119140625	21095.25390625	19993.619140625	21867.70703125	21449.375	21212.98828125	20666.0	18375.5234375	19543.462890625	19623.61328125	20451.37890625	14155.4052734375	24842.396484375	20522.75390625
90	120	23387.09765625	26558.6328125	32357.697265625	32609.9375	31351.681640625	34805.6875	26894.2890625	22752.02734375	25986.966796875	24624.818359375	22402.82421875	31554.619140625	26225.84375	25885.7578125	23240.4921875	26292.6484375	32026.673828125	32608.556640625	29948.765625	34364.0234375	25236.05859375	26259.953125	24656.771484375	30120.171875	25813.33203125	23296.0390625	5460.0634765625	9597.5263671875	36782.70703125	25073.994140625	29063.078125	8266.0654296875	33597.8359375	27045.314453125	33942.7890625	39084.76171875	22723.986328125	29795.39453125	31379.91796875	25155.2578125	29198.626953125	31044.677734375	29386.349609375	37116.578125	31436.673828125	25770.83203125	25085.43359375	31050.056640625	34471.96875	23018.228515625	30809.14453125	44505.90234375	30994.029296875	29290.294921875	31974.078125	35180.07421875	33505.68359375	32259.142578125	33482.546875	30788.2109375	29204.611328125	32698.8125	28195.58984375	20163.904296875	38820.50390625	32071.7890625	33529.578125	30897.755859375	34625.18359375	41968.41796875	21827.640625	28775.986328125	31698.49609375	24547.1875	32435.369140625	32066.333984375	30162.978515625	35991.671875	33301.53125	28948.6640625	26630.744140625	34117.09765625	37273.34765625	28513.984375	35751.69921875	46480.12109375	33213.0390625	32079.728515625	31997.9453125	36901.73046875	36087.9140625	34734.64453125	34346.3984375	30193.16796875	31819.28515625	32720.826171875	32365.271484375	21188.458984375	36303.46875	31988.001953125
120	150	32072.7109375	36811.3203125	42981.03515625	45040.1875	42869.03125	48350.765625	37121.20703125	29339.73828125	34205.68359375	32996.54296875	30046.4375	42145.92578125	34421.828125	37600.13671875	31732.9375	35754.171875	42360.765625	43680.94140625	41431.9296875	48309.95703125	33750.00390625	34895.26171875	32443.35546875	40572.65625	33904.5859375	31544.271484375	7443.18994140625	12335.349609375	48543.22265625	32606.142578125	38731.9609375	10747.6015625	45068.8984375	35670.6796875	47368.37109375	50934.3515625	33283.65234375	39562.89453125	43739.2734375	34497.37890625	38429.6484375	41690.2734375	39999.8359375	49986.23828125	43351.51171875	35544.73046875	33648.7890625	43080.98046875	46498.23046875	31373.84375	42551.48046875	60443.65234375	42612.8203125	39603.53515625	43196.2890625	48692.0234375	43521.33203125	44988.21875	45927.94921875	42697.13671875	38536.29296875	44634.87109375	37496.09375	27353.54296875	51376.953125	43283.81640625	44909.96875	39721.48046875	47639.75	54206.21484375	28167.46875	38388.78515625	43515.546875	34272.0703125	39216.7421875	42137.5625	40801.4140625	45879.16796875	44632.85546875	39169.03125	34385.0625	45819.6640625	49197.27734375	41265.61328125	49079.953125	58943.83984375	44088.09765625	45464.421875	43904.859375	49803.078125	47089.43359375	47987.97265625	45494.1328125	41192.6796875	42607.66015625	45660.10546875	43700.96484375	26940.3671875	48318.39453125	43900.95703125
150	180	34733.86328125	38430.12890625	46217.74609375	48391.41796875	49366.30078125	51735.94921875	39317.05078125	30810.595703125	37480.73828125	33103.19921875	32427.96484375	44656.4140625	34739.2578125	38896.6015625	34081.7421875	38361.37109375	46013.2578125	48846.5625	44710.7578125	52647.75	37927.12109375	37122.63671875	34517.07421875	40608.140625	34529.12890625	32184.390625	7202.54736328125	13039.7470703125	52265.17578125	34895.87109375	40334.00390625	11502.35546875	49988.6484375	38295.8203125	49858.17578125	55416.98828125	33098.22265625	42339.2421875	46955.05859375	35666.015625	40614.1953125	45507.3125	40805.75390625	54232.4140625	44836.140625	38098.90625	36129.55859375	48571.21875	47941.89453125	33023.26953125	44500.64453125	62584.21875	45119.96484375	43192.89453125	45714.046875	51871.1171875	46562.9453125	48397.39453125	48213.35546875	46128.1796875	41212.92578125	47105.08984375	38612.58203125	30060.41015625	53440.26171875	44548.7421875	47654.57421875	41706.953125	51789.7890625	59761.84375	28079.91015625	41278.42578125	47161.2109375	37789.3515625	41990.2578125	47370.6484375	41832.24609375	49317.6640625	47315.2109375	43047.05859375	37104.9375	49389.796875	52677.4609375	42790.80078125	51471.3046875	64780.91796875	48461.05859375	47339.73046875	47489.04296875	52792.05859375	49866.3359375	50871.6015625	49574.85546875	44925.24609375	44982.50390625	48492.9765625	46066.59765625	29705.587890625	50417.7265625	45215.77734375
180	240	35239.46484375	39331.140625	47238.93359375	50393.49609375	48715.59765625	53728.30078125	41208.40625	31367.560546875	37863.859375	34130.41015625	31816.9921875	47947.66796875	34031.69921875	37223.6796875	34808.36328125	38596.1640625	47120.421875	50475.72265625	45875.0859375	53254.0078125	39126.5	38306.2109375	35254.6953125	42982.953125	34682.76171875	31788.44140625	7219.826171875	13244.8681640625	52927.203125	35478.5390625	39992.8125	11819.9599609375	49174.18359375	39823.38671875	50888.8359375	55204.140625	33901.7265625	43955.0390625	47374.21484375	36951.14453125	41173.9609375	45167.70703125	41376.51171875	54179.1875	44774.68359375	38992.56640625	36898.98828125	47638.5078125	48845.4765625	33125.8671875	44417.51171875	62345.41796875	46508.9296875	43130.3203125	47240.18359375	51945.69921875	47126.7421875	48027.29296875	48802.640625	47662.109375	42120.48046875	47385.4375	38732.30078125	30779.94921875	54286.4765625	44634.9765625	47668.78125	42043.01171875	51016.4609375	59132.578125	29492.453125	41933.72265625	47825.96484375	38537.63671875	43827.87890625	47883.984375	42361.87890625	50346.4921875	46582.85546875	43744.86328125	36541.85546875	49788.734375	53104.44921875	42250.3125	52092.578125	64273.53515625	48092.33203125	47589.86328125	48247.41015625	53610.09765625	50823.41015625	51641.15234375	49678.6171875	45541.296875	45204.9765625	48779.02734375	46065.0	31773.919921875	49685.33984375	45548.4375
240	300	35035.41015625	39016.9140625	45914.1953125	50901.80078125	46034.21875	52323.33984375	41061.25	31961.787109375	38233.95703125	34794.20703125	31159.298828125	45018.2578125	35670.49609375	34909.078125	35265.92578125	38075.1171875	45926.94921875	48943.109375	44174.4921875	53055.23046875	41036.04296875	38406.6796875	36133.21875	43532.8203125	34862.89453125	30886.330078125	7781.31396484375	13173.3798828125	51774.5390625	34505.06640625	37817.2109375	11722.1513671875	46128.796875	39021.8828125	48743.8125	52968.14453125	34787.3515625	43141.69140625	46444.796875	37364.3828125	39823.8828125	43745.046875	40304.203125	51615.71875	44583.99609375	39263.58203125	35721.0859375	46630.26953125	47727.8515625	36103.2265625	43203.3515625	58363.07421875	44962.55859375	41822.2890625	45468.953125	51002.00390625	45319.71484375	45812.21875	47202.62109375	45394.375	40739.47265625	46299.10546875	37167.73046875	30547.55859375	50176.359375	43189.74609375	44158.61328125	39119.7109375	48438.18359375	55762.48046875	29226.12890625	41315.24609375	45306.3984375	37173.23046875	42092.90625	45424.7734375	40468.4453125	48332.69140625	45620.7265625	42071.49609375	37036.19921875	47904.734375	50088.359375	40104.84765625	47522.37890625	57554.49609375	46808.625	45109.7109375	46494.1171875	51021.61328125	48007.75	49540.39453125	47088.0703125	44083.63671875	44363.85546875	46490.26171875	44072.5234375	32112.109375	47279.890625	44135.91796875
300	360	33561.1796875	37807.3125	44113.55078125	49378.3046875	46177.4921875	52376.17578125	39783.109375	31212.431640625	36467.68359375	34030.5625	29225.888671875	45055.9140625	34489.3125	33891.32421875	33536.86328125	36942.54296875	43764.61328125	47926.390625	42866.04296875	51070.3046875	39578.69921875	37028.99609375	35756.640625	41055.53125	34477.85546875	30261.39453125	7301.78662109375	12843.744140625	47635.2734375	34830.421875	35548.19140625	11687.060546875	44344.3515625	39638.4453125	47247.1796875	50033.69140625	32688.361328125	41459.890625	45022.65234375	36903.26171875	38883.85546875	42008.76171875	37976.35546875	49397.52734375	42894.484375	38451.3125	35940.26953125	45191.6953125	45564.65625	33077.98828125	42047.76171875	54052.70703125	42418.88671875	41731.8515625	43664.41015625	48673.72265625	45259.1484375	44220.60546875	45607.76171875	43964.06640625	39855.1015625	44368.1875	37617.72265625	29983.4765625	48347.02734375	41228.0546875	45737.88671875	38359.8359375	46946.0859375	52542.60546875	28721.30859375	39909.91796875	44093.1015625	35466.77734375	39763.51953125	43661.47265625	37637.703125	46409.3984375	42495.6328125	39964.71484375	35896.44921875	45233.40234375	47648.8046875	37595.50390625	45056.34765625	54366.53515625	45048.33984375	43167.7578125	44790.57421875	48933.80859375	45560.953125	47373.55078125	45170.91015625	43091.74609375	42292.34765625	44965.7421875	42764.859375	31387.869140625	45103.06640625	42436.20703125
360	480	31483.296875	35756.140625	41247.41015625	47676.2890625	42120.1171875	48224.86328125	39352.828125	30612.322265625	34540.19921875	33850.40625	26242.990234375	41107.63671875	32939.5	29503.525390625	31715.50390625	34611.21484375	40602.63671875	45961.0625	39572.1328125	48405.0	38179.45703125	35160.01171875	34874.765625	38430.265625	32562.27734375	26328.486328125	7133.96044921875	12451.3544921875	44348.71484375	33183.12109375	31929.94921875	11656.0458984375	41326.40234375	37191.26953125	43645.015625	45181.30859375	33372.09765625	39063.06640625	41149.91796875	35077.32421875	34587.78125	38492.671875	35738.2109375	44583.6640625	39041.33203125	36832.44140625	33969.5390625	42198.6875	41634.546875	31455.96875	39347.421875	47733.8203125	39817.046875	39499.66015625	40095.88671875	43737.03515625	41261.0859375	40985.8828125	42037.96875	40144.8828125	37891.18359375	40607.57421875	37424.51171875	29614.68359375	43768.25390625	38979.65625	42201.72265625	35753.24609375	42670.0625	46333.17578125	28238.99609375	37417.66015625	40709.83203125	33573.12109375	37143.6328125	40110.734375	35427.25390625	42140.09765625	40066.05078125	38063.390625	34053.15234375	41817.7890625	43522.875	35011.7578125	41723.609375	48664.60546875	41214.90625	40684.5625	41477.68359375	43696.78515625	42619.6328125	43725.07421875	41637.23828125	39499.8515625	39777.2890625	40898.30078125	39381.34765625	31270.859375	41828.66796875	40190.21875
480	600	29178.876953125	32447.900390625	35986.94140625	43198.65625	36580.5546875	43387.43359375	37210.2109375	28526.314453125	32283.1171875	31667.904296875	23598.701171875	35951.70703125	31604.23828125	25574.271484375	29673.142578125	32225.29296875	35457.828125	42106.2578125	34421.80078125	43646.828125	37188.51171875	32114.72265625	31401.138671875	36626.578125	31485.697265625	23790.19921875	7420.19287109375	12166.0224609375	37528.49609375	31234.9140625	27465.779296875	11211.6083984375	35395.796875	33483.3359375	36600.13671875	38622.50390625	29274.32421875	34845.6640625	36154.49609375	31513.318359375	31521.416015625	33157.21875	30887.802734375	38468.26953125	34098.64453125	32346.474609375	31899.51953125	36411.1796875	36245.58203125	28206.912109375	33513.7890625	39407.91015625	34522.69921875	35612.625	35608.1953125	37944.375	35636.11328125	34961.48046875	36476.578125	35176.77734375	33275.0	35099.48046875	26720.974609375	27405.19921875	37673.78125	35107.1171875	35531.46875	32027.849609375	36753.51171875	39375.67578125	26493.859375	34073.2734375	34861.46875	30433.982421875	32568.62890625	34704.140625	30987.27734375	36885.625	34250.1484375	33326.125	30956.451171875	37044.4453125	37879.16796875	29634.962890625	35768.11328125	39397.59375	35159.9765625	36652.0546875	35792.84375	37603.640625	36655.33984375	37083.5390625	35998.28515625	34211.25	34579.31640625	34859.15234375	30372.3125	28369.025390625	35895.015625	35891.28125
600	900	26004.83984375	28487.068359375	29884.771484375	36946.70703125	29798.72265625	36840.88671875	33100.51953125	26019.974609375	27170.123046875	27893.06640625	19491.3046875	31676.48828125	29249.99609375	21474.806640625	26163.12890625	28174.55078125	29348.865234375	36141.6328125	29104.828125	36607.16796875	33168.63671875	27673.46484375	28929.7578125	30476.568359375	28856.71484375	20163.076171875	6708.10888671875	11261.515625	29729.33984375	27988.189453125	22127.599609375	10757.4404296875	30072.26953125	29796.056640625	30618.595703125	32197.31640625	26584.08203125	29966.7109375	29675.0	27890.603515625	26693.3125	28420.4609375	26668.36328125	31862.31640625	29533.939453125	27686.14453125	27485.595703125	30750.96484375	30089.837890625	23737.69921875	28454.08984375	31352.357421875	28299.861328125	30923.572265625	29669.05859375	31398.541015625	31056.83984375	29619.369140625	30689.150390625	29276.603515625	28238.58984375	28907.931640625	24921.77734375	25156.19921875	32095.3125	30120.62109375	30877.240234375	29379.349609375	31467.22265625	32759.828125	24475.248046875	29601.48046875	29699.904296875	27169.29296875	28540.58203125	29669.169921875	26721.642578125	30567.609375	29492.623046875	28804.890625	26946.740234375	30865.267578125	31820.330078125	26350.626953125	30265.171875	32738.025390625	29545.0390625	31657.79296875	30741.58984375	31224.119140625	31495.017578125	31501.064453125	30540.359375	29181.998046875	29155.390625	29328.224609375	26221.44140625	25652.982421875	31442.712890625	31187.955078125
900	1200	22809.455078125	24079.80859375	22755.955078125	29764.478515625	22575.650390625	29253.72265625	28683.86328125	22120.330078125	22292.72265625	23579.203125	15748.4619140625	25143.259765625	25720.041015625	16956.70703125	22983.533203125	23964.75390625	22532.4765625	29019.306640625	22053.6328125	29280.634765625	29208.650390625	22659.6171875	24260.259765625	24985.263671875	25288.806640625	16244.5546875	6336.2744140625	10588.1640625	22283.02734375	24576.669921875	16999.166015625	10320.0703125	24758.259765625	24183.626953125	23985.146484375	25397.353515625	22051.919921875	24866.32421875	23771.98046875	23368.46484375	22687.1953125	23011.3828125	22296.736328125	25815.57421875	23873.1796875	22849.0703125	22973.654296875	24897.357421875	24572.341796875	20346.84375	23254.5234375	25156.330078125	22481.30078125	25791.056640625	23990.28515625	25130.150390625	24272.474609375	24094.87890625	24282.857421875	23438.921875	23066.0390625	22869.03125	21175.587890625	22271.765625	25655.56640625	24951.662109375	24607.947265625	24494.751953125	24546.9609375	26134.517578125	21606.443359375	25100.826171875	23459.2421875	23118.35546875	23537.673828125	24005.22265625	22359.623046875	24864.814453125	23874.96875	23408.779296875	22873.001953125	24615.90625	25184.8046875	22726.27734375	24050.505859375	25508.744140625	22906.8203125	26118.20703125	24358.41015625	25042.70703125	24903.669921875	25147.88671875	24005.361328125	22715.9921875	23475.126953125	22978.677734375	21871.455078125	22280.7109375	25105.16015625	25442.19140625
1200	1500	20801.2265625	21033.18359375	18453.662109375	23736.890625	17868.958984375	24184.171875	24607.3359375	19011.896484375	19194.55078125	19567.140625	13650.103515625	20667.306640625	23388.125	14818.166015625	20896.30078125	20908.064453125	18246.345703125	23578.181640625	18095.447265625	24404.90625	24872.59765625	19479.314453125	20816.869140625	20295.357421875	22977.0234375	14269.3857421875	6050.955078125	10349.1103515625	18028.94921875	21903.119140625	14058.017578125	10052.9677734375	21633.41015625	20370.287109375	19934.814453125	20826.09765625	19934.0546875	21933.513671875	19595.560546875	20874.04296875	20201.689453125	19047.2421875	19908.837890625	22037.169921875	20434.564453125	19978.45703125	20240.583984375	21372.55859375	21248.1015625	19072.5390625	20227.416015625	21554.767578125	18257.474609375	22443.509765625	19798.23046875	21619.0234375	20637.841796875	20731.28125	20276.45703125	19178.41796875	19540.8984375	19146.708984375	18964.333984375	20440.775390625	21967.029296875	21504.66015625	21666.60546875	20270.52734375	20306.8515625	22191.26171875	18822.7578125	21764.98828125	19326.431640625	20256.62890625	20785.619140625	19983.154296875	20137.130859375	21759.6328125	20476.01953125	20206.650390625	20081.314453125	21579.0390625	21433.130859375	20377.732421875	20936.478515625	22310.345703125	18948.8828125	22020.41015625	20246.74609375	21144.404296875	20897.046875	21234.130859375	19657.59375	18647.17578125	20189.830078125	19541.50390625	20186.62109375	19145.451171875	21024.46875	21845.8515625
1500	1800	19158.5078125	17962.09765625	15679.9208984375	19208.76171875	15410.70703125	20189.927734375	21569.416015625	16169.8203125	16975.53125	17541.96484375	12848.6025390625	17581.0078125	20785.546875	13403.564453125	19229.880859375	17931.822265625	15651.1357421875	19295.91796875	15559.6787109375	20564.9765625	21874.18359375	17109.033203125	18157.146484375	16390.267578125	20469.193359375	13498.1982421875	6012.48876953125	10197.498046875	15470.25390625	19337.857421875	12252.7705078125	9771.912109375	19641.908203125	17757.501953125	17188.259765625	18416.07421875	16769.73828125	19799.279296875	17100.0390625	19007.306640625	19088.40234375	16534.74609375	18086.76171875	19867.205078125	18564.001953125	18257.412109375	18193.904296875	19130.201171875	18781.20703125	18041.349609375	18015.705078125	19530.794921875	15562.1806640625	19909.888671875	16871.44140625	19359.103515625	18145.15625	18175.310546875	17443.072265625	16389.14453125	17593.423828125	16998.4140625	18383.01953125	18108.74609375	19283.125	19316.203125	19840.44140625	17996.736328125	17215.30859375	19589.40234375	16876.314453125	19711.728515625	16404.6640625	18103.1015625	19573.0859375	17661.81640625	18080.580078125	19518.08984375	18011.81640625	17914.3671875	18209.869140625	19455.34765625	19129.494140625	18792.658203125	18733.48828125	20114.76171875	15718.05078125	19917.203125	17208.765625	18750.904296875	18453.326171875	18795.548828125	16962.09375	15499.0205078125	17719.255859375	16478.73046875	18423.3203125	17186.01953125	19416.54296875	19569.638671875
1800	2100	17553.748046875	15538.47265625	14296.044921875	15877.5625	14016.501953125	17749.349609375	19276.39453125	13770.3447265625	15927.3828125	15583.314453125	13282.14453125	14874.412109375	18282.869140625	13015.7021484375	17987.212890625	15556.0634765625	13786.9033203125	16480.416015625	14853.1240234375	18428.54296875	19132.568359375	15207.642578125	15102.0634765625	14223.3046875	18105.34765625	13781.482421875	7170.189453125	10099.189453125	13938.8369140625	17350.478515625	11692.3662109375	9124.072265625	17488.125	17360.537109375	15653.623046875	16791.08203125	15851.9970703125	17822.41796875	15633.5068359375	17380.435546875	17447.705078125	15219.158203125	16467.34765625	18050.859375	16238.306640625	17235.595703125	16257.650390625	17595.62109375	17376.0390625	17036.765625	16864.0390625	17870.001953125	13641.2080078125	18664.6328125	15128.212890625	17204.271484375	16938.779296875	16534.201171875	14943.5224609375	14553.2431640625	15427.6337890625	15791.6513671875	15631.076171875	15489.912109375	17102.09375	17599.013671875	18788.06640625	18019.162109375	15112.8779296875	18281.224609375	15198.87890625	17471.3359375	14470.306640625	15933.765625	18546.708984375	15737.2294921875	16431.666015625	18118.083984375	16968.072265625	15969.7412109375	16577.138671875	18441.05859375	17585.607421875	16674.966796875	16111.853515625	18312.724609375	13678.10546875	18919.7890625	15225.3408203125	17396.12890625	18060.2421875	16234.6240234375	14606.7470703125	13477.1357421875	16194.6884765625	14914.41015625	16333.5087890625	15227.3193359375	18611.55859375	17803.6640625
2100	2400	16531.265625	13906.9892578125	13151.1953125	14514.091796875	14597.33984375	16051.32421875	16623.111328125	12627.619140625	14649.908203125	14893.8505859375	12744.2822265625	13206.064453125	15997.68359375	13144.68359375	16799.470703125	13794.1875	12809.107421875	14921.7236328125	13684.1279296875	16691.29296875	16808.970703125	14676.3525390625	13964.1494140625	12887.7568359375	16248.810546875	13754.0517578125	6910.8798828125	9723.40625	12864.193359375	15520.16015625	11584.376953125	8734.2802734375	16448.00390625	16711.876953125	13584.2041015625	15536.859375	13443.1142578125	16465.72265625	14530.279296875	16195.5087890625	16234.400390625	14615.5966796875	15377.8076171875	16857.951171875	15344.705078125	15807.126953125	15326.3544921875	16485.26953125	15824.5625	15837.9326171875	14712.3525390625	16590.169921875	11967.18359375	17830.666015625	13351.19140625	16311.6220703125	16605.10546875	14571.3173828125	13942.8486328125	13394.078125	14694.376953125	14584.0537109375	12772.884765625	14269.380859375	15708.1640625	16213.73046875	17105.572265625	16115.2236328125	14643.1083984375	16839.57421875	13420.3095703125	16268.7216796875	13776.4765625	15042.224609375	17313.1328125	15284.3134765625	15555.994140625	16695.9296875	15352.9833984375	14873.94921875	14519.5361328125	17036.22265625	16739.0546875	15583.5751953125	16195.853515625	17046.880859375	12745.3505859375	17620.14453125	14339.845703125	16161.30078125	16444.46484375	15433.73828125	13445.9580078125	12612.2431640625	14825.7724609375	13725.498046875	12850.4189453125	13651.052734375	17082.974609375	16968.115234375
2400	2700	16132.3837890625	13136.326171875	12065.3037109375	13218.439453125	12043.595703125	15644.8662109375	16094.1669921875	11674.568359375	13828.0751953125	13493.8701171875	11494.1494140625	12741.74609375	15310.3603515625	12106.86328125	16267.296875	13148.92578125	11757.3203125	12899.4384765625	11918.0517578125	15366.7841796875	16079.5126953125	13234.9501953125	13451.236328125	11241.8994140625	14826.83984375	12459.361328125	5818.5791015625	9518.755859375	10910.921875	14199.7158203125	10184.6201171875	8976.4345703125	16360.1669921875	14188.5224609375	12655.3056640625	15187.5322265625	14271.83984375	16677.392578125	13831.65234375	16378.4130859375	15690.056640625	14223.5673828125	15528.244140625	16047.6494140625	14652.451171875	15096.876953125	13965.19140625	15189.1708984375	15244.767578125	15801.0205078125	14486.0849609375	16208.421875	11136.916015625	16029.2060546875	12522.751953125	15251.8232421875	14779.5595703125	14188.79296875	12621.19921875	13031.75	13069.029296875	13350.3818359375	15297.9052734375	13529.26171875	15869.83984375	15715.0009765625	16230.5390625	15053.5048828125	13134.36328125	15880.7939453125	12222.640625	16052.537109375	14016.3857421875	15572.2890625	15610.935546875	14958.7734375	15811.9345703125	15889.796875	14766.087890625	14864.962890625	13436.931640625	15407.173828125	15420.4013671875	17205.15234375	15765.1279296875	16854.890625	11979.6787109375	16070.734375	12847.5390625	15027.3583984375	14694.685546875	14584.9345703125	12317.5888671875	12618.09375	14248.3388671875	13426.791015625	14213.4560546875	12310.13671875	15147.4638671875	15815.1767578125
