frame_start	frame_end	Left-Cerebral-White-Matter	Left-Cerebellum-White-Matter	Left-Cerebellum-Cortex	Left-Thalamus	Left-Caudate	Left-Putamen	Left-Pallidum	Brain-Stem	Left-Hippocampus	Left-Amygdala	CSF	Left-Accumbens-area	Left-VentralDC	Left-choroid-plexus	Right-Cerebral-White-Matter	Right-Cerebellum-White-Matter	Right-Cerebellum-Cortex	Right-Thalamus	Right-Caudate	Right-Putamen	Right-Pallidum	Right-Hippocampus	Right-Amygdala	Right-Accumbens-area	Right-VentralDC	Right-choroid-plexus	AirCavity	Skull	Vermis	Pons	CSF-ExtraCerebral	Head-ExtraCerebral	ctx-lh-bankssts	ctx-lh-caudalanteriorcingulate	ctx-lh-caudalmiddlefrontal	ctx-lh-cuneus	ctx-lh-entorhinal	ctx-lh-fusiform	ctx-lh-inferiorparietal	ctx-lh-inferiortemporal	ctx-lh-isthmuscingulate	ctx-lh-lateraloccipital	ctx-lh-lateralorbitofrontal	ctx-lh-lingual	ctx-lh-medialorbitofrontal	ctx-lh-middletemporal	ctx-lh-parahippocampal	ctx-lh-paracentral	ctx-lh-parsopercularis	ctx-lh-parsorbitalis	ctx-lh-parstriangularis	ctx-lh-pericalcarine	ctx-lh-postcentral	ctx-lh-posteriorcingulate	ctx-lh-precentral	ctx-lh-precuneus	ctx-lh-rostralanteriorcingulate	ctx-lh-rostralmiddlefrontal	ctx-lh-superiorfrontal	ctx-lh-superiorparietal	ctx-lh-superiortemporal	ctx-lh-supramarginal	ctx-lh-frontalpole	ctx-lh-temporalpole	ctx-lh-transversetemporal	ctx-lh-insula	ctx-rh-bankssts	ctx-rh-caudalanteriorcingulate	ctx-rh-caudalmiddlefrontal	ctx-rh-cuneus	ctx-rh-entorhinal	ctx-rh-fusiform	ctx-rh-inferiorparietal	ctx-rh-inferiortemporal	ctx-rh-isthmuscingulate	ctx-rh-lateraloccipital	ctx-rh-lateralorbitofrontal	ctx-rh-lingual	ctx-rh-medialorbitofrontal	ctx-rh-middletemporal	ctx-rh-parahippocampal	ctx-rh-paracentral	ctx-rh-parsopercularis	ctx-rh-parsorbitalis	ctx-rh-parstriangularis	ctx-rh-pericalcarine	ctx-rh-postcentral	ctx-rh-posteriorcingulate	ctx-rh-precentral	ctx-rh-precuneus	ctx-rh-rostralanteriorcingulate	ctx-rh-rostralmiddlefrontal	ctx-rh-superiorfrontal	ctx-rh-superiorparietal	ctx-rh-superiortemporal	ctx-rh-supramarginal	ctx-rh-frontalpole	ctx-rh-temporalpole	ctx-rh-transversetemporal	ctx-rh-insula
0	30	40.71072006225586	43.998146057128906	37.75904083251953	29.153120040893555	19.82257652282715	42.75593948364258	29.175952911376953	58.950347900390625	35.45818328857422	54.61991882324219	49.51245880126953	73.24241638183594	137.2833251953125	42.45561599731445	48.84196853637695	29.214357376098633	37.87531280517578	71.6609115600586	54.30669403076172	74.33460998535156	60.75196838378906	61.26001739501953	115.00228118896484	78.02842712402344	81.46044921875	44.842647552490234	37.70186996459961	62.17722702026367	17.82831573486328	48.031211853027344	46.496376037597656	34.129051208496094	43.524044036865234	58.04338455200195	23.075170516967773	42.418670654296875	81.31170654296875	54.70944595336914	42.70283126831055	43.29460906982422	29.875436782836914	25.283729553222656	43.5263557434082	30.958850860595703	86.15091705322266	30.81507682800293	37.30140686035156	68.14659118652344	57.17650604248047	7.882373332977295	41.115028381347656	24.267131805419922	40.91988754272461	58.031890869140625	47.704246520996094	68.48348236083984	60.20507049560547	40.90773010253906	55.628578186035156	32.773460388183594	74.22465515136719	51.86131286621094	86.92423248291016	89.69866943359375	119.60343170166016	73.62619018554688	45.31962203979492	44.93365478515625	53.34904479980469	27.87078285217285	29.709115982055664	92.26384735107422	41.45756149291992	47.11251449584961	52.750282287597656	33.84800338745117	78.73485565185547	44.390098571777344	88.27579498291016	37.69334030151367	43.119998931884766	28.79564666748047	69.07791900634766	41.704612731933594	67.87674713134766	36.4885368347168	40.41586685180664	33.036598205566406	46.83161544799805	35.003536224365234	63.49958038330078	58.958343505859375	56.28459548950195	40.811824798583984	80.6661605834961	85.99849700927734	37.94684982299805	36.614192962646484	137.15673828125	90.86939239501953
30	60	3120.232177734375	3418.181396484375	4415.4560546875	4686.8779296875	3492.279541015625	4577.814453125	3409.86181640625	3805.453369140625	3850.9580078125	3357.52197265625	2858.6767578125	4864.46875	4388.06591796875	2822.162109375	3237.93408203125	3603.13427734375	4486.55517578125	4436.32666015625	3576.7587890625	4798.3935546875	4035.62646484375	3409.69677734375	3445.869384765625	4823.17041015625	4027.399658203125	2949.74365234375	883.0592041015625	1178.1544189453125	4090.597412109375	3912.02734375	3473.66650390625	761.3079223632812	4988.02734375	4608.83642578125	4565.85888671875	4849.705078125	3613.81396484375	3786.77880859375	4158.0078125	3675.74609375	4162.04541015625	3884.238525390625	4265.3486328125	4482.8740234375	4869.951171875	3769.5810546875	3556.266845703125	3632.580810546875	4648.400390625	4381.05712890625	4523.45458984375	4801.98974609375	3650.28662109375	4751.85986328125	3953.885498046875	4274.31201171875	4846.7109375	4586.2607421875	4368.76513671875	3859.961181640625	4627.1455078125	4509.16455078125	4557.43359375	3272.028564453125	6225.89794921875	4809.50732421875	4773.18408203125	4572.61962890625	4627.7158203125	5059.23388671875	3705.101806640625	4051.3955078125	4181.1484375	3813.821533203125	4957.78857421875	4222.8818359375	4515.79638671875	4708.48828125	4799.2666015625	4375.39599609375	3893.2978515625	4158.22998046875	4849.66455078125	4287.16650390625	5072.376953125	5732.125	4090.30078125	5500.93212890625	4260.12890625	4484.005859375	5217.4404296875	4769.46484375	4410.8056640625	3462.540283203125	4941.775390625	4369.32470703125	4810.31591796875	3811.80615234375	6898.3369140625	4398.61767578125
60	90	10095.396484375	11218.080078125	14356.2392578125	14777.1318359375	13033.3935546875	15564.6748046875	10900.2978515625	11679.24609375	12042.7470703125	12389.3505859375	8313.9267578125	14968.1083984375	12563.455078125	8727.646484375	10437.828125	12007.4765625	14800.5537109375	14791.8837890625	12536.6982421875	14629.30859375	11260.9580078125	11995.4853515625	10527.7802734375	12350.89453125	12917.248046875	9754.5615234375	2677.8349609375	3741.53173828125	13366.921875	12671.955078125	10522.216796875	2595.107177734375	14061.7509765625	15252.322265625	14741.283203125	15610.009765625	10928.88671875	12685.142578125	13558.3203125	12504.0185546875	14419.9619140625	13442.5029296875	13618.517578125	15041.7529296875	15519.404296875	12187.8046875	11282.72265625	12013.654296875	15171.208984375	13193.3154296875	14442.638671875	15987.6650390625	11765.12109375	14768.2744140625	13697.6259765625	13864.0244140625	15890.1298828125	15065.166015625	14234.59765625	12297.673828125	13685.244140625	13794.74609375	15327.6962890625	9897.173828125	18688.984375	13858.853515625	14811.8251953125	13662.4169921875	14790.1533203125	16671.830078125	10769.390625	12821.0615234375	13705.1416015625	13105.609375	15067.5087890625	13925.443359375	14555.3134765625	15559.0400390625	14834.892578125	13779.3076171875	12256.794921875	13395.560546875	15095.40234375	14639.390625	15436.2919921875	16854.59375	12410.2685546875	17444.54296875	13441.6513671875	14462.4736328125	15811.77734375	15738.4365234375	14499.2431640625	11694.0751953125	14456.66796875	14141.5927734375	15573.3603515625	11363.8095703125	18857.626953125	13564.5478515625
90	120	17297.474609375	19091.22265625	24553.193359375	25345.857421875	20171.224609375	26478.4453125	18930.875	19021.45703125	19861.416015625	18486.666015625	13848.6875	23966.173828125	20931.662109375	13242.8408203125	17611.849609375	19835.302734375	24865.697265625	25658.427734375	22071.154296875	26361.294921875	19342.216796875	19001.189453125	16396.95703125	22914.673828125	20850.5703125	16607.205078125	4316.3515625	6215.12158203125	22075.912109375	21318.056640625	17095.3203125	4341.20947265625	25922.95703125	25254.4609375	25254.24609375	27072.158203125	18480.20703125	21734.8046875	22625.69921875	21094.572265625	22705.76171875	23355.802734375	22504.44921875	25407.703125	26093.119140625	20944.482421875	18923.697265625	20134.048828125	25024.705078125	23399.642578125	25343.5078125	27897.041015625	20001.8125	25302.693359375	22331.138671875	23607.875	25340.5859375	25762.33203125	24303.087890625	21463.341796875	23089.892578125	22983.0703125	25773.15234375	18535.9765625	31210.89453125	22104.326171875	24224.9453125	22689.935546875	25078.13671875	27442.927734375	18041.083984375	21738.244140625	22377.107421875	21683.486328125	24931.60546875	23587.1953125	23586.310546875	25351.0703125	23682.18359375	22963.26953125	20677.7109375	22001.833984375	24812.140625	24418.796875	26908.833984375	29807.84765625	21094.12109375	27149.103515625	22393.326171875	24185.0703125	24251.1875	26158.3984375	23930.94921875	20038.916015625	23730.478515625	22932.498046875	26317.716796875	19471.513671875	30660.984375	22904.646484375
120	150	24299.47265625	27107.091796875	33984.8046875	35214.6328125	30039.654296875	37226.125	27370.13671875	26113.45703125	26766.4140625	24997.826171875	18791.900390625	30675.375	28826.408203125	19168.966796875	24785.443359375	27922.072265625	34524.078125	37244.2890625	31318.28515625	35882.72265625	27335.12109375	27969.400390625	25006.59375	31337.03125	30582.013671875	22129.123046875	5571.2236328125	8387.6845703125	31906.134765625	29998.548828125	23408.45703125	5958.71435546875	34623.04296875	32839.51171875	35375.04296875	37848.88671875	23103.837890625	31638.150390625	32575.671875	30576.4296875	32306.23046875	33154.1796875	31305.494140625	37102.203125	35034.8671875	29834.9375	25655.12109375	28600.830078125	35078.703125	30991.640625	34498.08984375	39543.875	28339.791015625	35845.01171875	32497.2265625	33383.3828125	33748.87890625	36378.1796875	33422.546875	30303.314453125	31548.44140625	31959.083984375	36470.90234375	24575.87109375	41857.7578125	30733.8046875	34457.09765625	30291.69921875	35713.8515625	37613.98046875	25309.205078125	30823.666015625	31536.49609375	30591.212890625	34372.2265625	33267.7890625	32898.8828125	36268.921875	33352.140625	33034.2421875	28508.66015625	30195.72265625	35029.14453125	34649.92578125	36083.4453125	42766.15625	29016.34375	37118.3828125	32108.185546875	33910.51953125	33925.58984375	37501.60546875	33306.31640625	28241.423828125	33084.00390625	32721.310546875	38159.203125	27465.3125	42693.5625	31222.14453125
150	180	26842.6640625	30610.462890625	38106.54296875	37603.1015625	34372.81640625	41789.296875	30599.619140625	28225.0	28962.140625	27722.525390625	20290.576171875	36704.4921875	32285.6640625	20913.14453125	27423.73046875	31015.455078125	37941.296875	40194.05078125	34740.76171875	41829.75	32416.783203125	29083.734375	27045.1015625	33223.65625	32206.830078125	21008.060546875	5726.12451171875	8972.56640625	35084.75390625	34291.28515625	24969.115234375	6459.1767578125	36607.5234375	35754.4921875	38465.77734375	41296.34375	25602.3984375	34678.078125	35847.515625	34114.91796875	34438.02734375	36703.2265625	35396.4140625	39393.34375	37599.17578125	34300.41015625	27766.181640625	30904.470703125	37766.02734375	35970.22265625	39092.96484375	42657.81640625	31672.998046875	38995.203125	35978.0	36097.73046875	35973.8125	40080.57421875	37000.35546875	32505.87109375	34786.28125	35704.71875	39459.4296875	27482.546875	46044.1484375	32661.787109375	39404.546875	33616.7421875	38152.7890625	40595.8671875	28166.306640625	34233.92578125	34871.6875	33806.2265625	38048.578125	36559.33984375	35789.4453125	39207.34375	36209.23828125	36437.125	32060.994140625	34971.3359375	38482.8203125	37589.90625	38824.109375	46090.28125	32721.43359375	41982.13671875	35634.72265625	37457.58984375	36936.15625	41407.20703125	36625.03125	31684.9453125	35026.33203125	35357.46875	42736.4609375	28465.763671875	47329.35546875	34251.1640625
180	240	26934.658203125	30071.115234375	37629.875	37635.55859375	34099.46484375	42067.35546875	30784.68359375	28511.703125	27696.681640625	26554.037109375	19539.083984375	36420.71875	30345.80859375	19431.51171875	27500.171875	31192.974609375	37665.01171875	39585.34375	33857.4609375	42100.98828125	31865.09375	28875.396484375	27136.736328125	34899.88671875	32805.03515625	21289.80078125	5727.072265625	9006.533203125	35954.8203125	33951.9140625	24014.48046875	6533.34228515625	36898.390625	35572.4921875	37839.78125	40865.04296875	23978.833984375	34408.8203125	35500.9765625	33646.0625	33030.625	36341.46484375	35398.55859375	39447.609375	38063.4453125	34229.625	27462.45703125	30072.08984375	37200.77734375	36215.87109375	37801.53515625	41418.68359375	30559.58203125	38709.0234375	34574.3984375	35970.79296875	36688.90234375	39063.5859375	35891.0390625	32498.529296875	35044.16796875	34550.671875	38689.06640625	27973.28125	44358.68359375	32912.0625	37503.11328125	33270.9453125	37161.125	39738.15625	29185.431640625	34196.265625	34839.2890625	34029.73046875	36675.5625	36295.37109375	35235.0625	38508.953125	36152.36328125	36395.11328125	32332.591796875	34224.35546875	37406.5234375	36990.9921875	38177.328125	43880.43359375	32133.26171875	40654.2265625	34420.91015625	36591.51171875	35863.5859375	40503.05859375	35870.734375	31099.00390625	35149.48828125	34850.35546875	40164.04296875	30394.40234375	42674.5546875	33191.5234375
240	300	26132.408203125	29549.447265625	35415.3671875	36355.77734375	31763.046875	40950.00390625	30453.5859375	27056.93359375	26068.1171875	26178.23828125	18626.50390625	35091.75390625	30336.0546875	17613.73828125	26539.140625	29816.958984375	35211.64453125	36776.20703125	32374.759765625	39433.7578125	31884.41015625	27355.068359375	27475.771484375	34622.375	31257.517578125	18092.6640625	5629.2685546875	8871.123046875	32169.537109375	31807.94921875	22190.41015625	6536.5634765625	36077.9609375	34285.7890625	34898.84375	37528.80078125	23281.037109375	33384.8359375	33413.359375	32566.462890625	32491.826171875	34386.4921875	33210.34765625	37164.015625	36310.09765625	32720.23046875	25378.09375	28412.578125	36366.6875	34628.34765625	35386.1484375	37324.953125	28926.94921875	36117.37890625	32648.75	34100.3984375	33480.1484375	37114.75390625	33606.0546875	30325.412109375	33122.44921875	32087.1875	36747.609375	27203.517578125	40023.7890625	31702.986328125	35811.33984375	32695.427734375	35062.66015625	36311.80859375	26970.474609375	32585.896484375	32871.5546875	33075.84375	35280.75	33980.734375	33544.9609375	36624.8359375	35039.578125	34809.5625	31601.505859375	31356.64453125	34703.5234375	35559.8984375	35653.171875	40071.0234375	29556.5078125	38144.65234375	31983.921875	34416.5859375	34739.66015625	38115.796875	33372.75390625	28796.8359375	34045.83203125	32872.453125	37746.50390625	28853.162109375	39339.296875	31464.083984375
300	360	24733.34375	28029.330078125	32892.6953125	33630.63671875	29847.009765625	37660.1953125	30166.9765625	26010.158203125	25722.40234375	25534.8359375	16965.35546875	32955.37890625	29729.0546875	14681.2421875	25261.994140625	28561.736328125	32913.76953125	34768.6015625	29729.48828125	37704.7890625	30960.001953125	25946.26171875	26516.958984375	30359.943359375	30776.4296875	15246.7998046875	5694.21484375	8819.1474609375	29280.556640625	30222.09765625	20446.03125	6556.84375	32062.431640625	31995.029296875	31731.595703125	33559.47265625	23627.607421875	31350.6171875	30023.859375	31070.828125	30976.16015625	31102.62890625	31502.1953125	34266.32421875	33146.44140625	31048.73828125	26105.029296875	27034.587890625	32634.37109375	33375.828125	33234.75390625	33604.36328125	26419.701171875	33180.42578125	29746.783203125	30876.203125	32383.333984375	34432.98046875	30611.072265625	27239.67578125	31307.2734375	29337.462890625	34048.7734375	26969.177734375	37030.29296875	29854.546875	32585.76953125	30417.521484375	31924.130859375	33389.29296875	25512.818359375	30297.171875	29967.099609375	31673.896484375	32669.20703125	31142.60546875	31487.380859375	33411.52734375	32779.60546875	32451.974609375	28738.412109375	28845.669921875	31985.7734375	33633.09375	32732.58984375	36548.11328125	26947.3203125	34581.78125	29405.806640625	31171.900390625	32359.765625	35191.14453125	30430.294921875	26193.23046875	31178.58203125	29629.515625	37686.37109375	27567.412109375	35791.125	29845.19140625
360	480	22871.23046875	25858.88671875	29116.60546875	30698.072265625	26607.599609375	33740.64453125	28538.513671875	24355.3828125	23095.923828125	23785.927734375	15241.2861328125	30269.353515625	28348.83203125	12155.271484375	23244.681640625	26684.783203125	29049.162109375	31125.53515625	26340.98046875	32907.4765625	29278.59375	24179.025390625	24492.89453125	29122.17578125	29552.642578125	13675.263671875	5796.66650390625	8733.6982421875	25577.982421875	27940.078125	17837.36328125	6588.12841796875	28676.630859375	28515.16015625	27022.201171875	29830.9140625	22781.564453125	28189.48828125	26521.04296875	27808.23046875	26476.61328125	27210.880859375	27899.544921875	29189.66015625	29893.1015625	28239.8125	23871.435546875	23795.8984375	29046.6171875	29816.130859375	29657.205078125	27921.015625	22407.953125	30094.66015625	25729.806640625	27005.330078125	28321.03125	30503.263671875	26572.564453125	23067.53515625	27771.271484375	25641.48046875	30657.126953125	24825.318359375	31702.53515625	26758.955078125	30220.771484375	27425.66015625	26974.39453125	28065.37109375	24851.224609375	27156.5703125	25983.029296875	28097.25390625	28554.6484375	27212.185546875	27722.283203125	28887.92578125	29011.453125	29493.900390625	26368.892578125	25202.7890625	28135.888671875	29128.48828125	28739.720703125	29911.044921875	23210.9296875	30835.8984375	25125.423828125	26784.630859375	28650.787109375	30313.4453125	26281.845703125	22256.98046875	27483.908203125	25865.451171875	32212.546875	25949.419921875	32555.234375	27169.1875
480	600	20583.828125	23491.689453125	24530.4609375	25691.53125	21784.630859375	28995.359375	25842.025390625	22267.9765625	20597.6953125	22424.341796875	13784.236328125	27503.515625	27138.9453125	11126.3837890625	20904.1328125	24295.84375	24614.01953125	26368.296875	22667.9921875	28288.314453125	26620.798828125	21206.646484375	22880.830078125	24878.7734375	26884.130859375	11784.7197265625	6052.86328125	8608.0966796875	21969.4296875	24947.69921875	15202.9296875	6550.12353515625	24485.7265625	24244.734375	21999.53515625	24084.822265625	20685.47265625	24575.9375	21612.5546875	24245.8203125	22738.197265625	22787.455078125	24152.533203125	25253.779296875	26042.654296875	24302.318359375	21636.3046875	19724.900390625	24372.927734375	26465.609375	25259.705078125	23858.41015625	18402.703125	25546.3046875	21153.12890625	22266.880859375	24360.46484375	25623.720703125	21475.767578125	18211.14453125	23479.837890625	21352.650390625	25752.0	22298.345703125	26336.216796875	23802.57421875	25042.357421875	24318.5546875	21644.51953125	23221.498046875	22486.0703125	23575.28515625	21660.25390625	24668.91796875	23971.63671875	23043.935546875	24510.447265625	24278.97265625	25022.4140625	25070.533203125	23608.14453125	20937.78515625	23216.0	25279.01171875	24019.935546875	24595.611328125	19147.634765625	25530.248046875	20563.90625	22034.001953125	25233.13671875	25508.890625	21250.66015625	17850.693359375	23630.88671875	21151.763671875	27222.416015625	22544.0	26281.361328125	23677.349609375
600	900	17815.916015625	20143.8984375	19791.7109375	19730.248046875	16969.62109375	23388.84765625	22294.77734375	19351.345703125	17814.017578125	20414.109375	13159.701171875	21457.138671875	23872.1875	10299.7890625	17933.751953125	20582.39453125	19768.283203125	20544.69921875	17269.765625	22878.138671875	22326.158203125	17776.87890625	21371.029296875	18741.845703125	24746.94140625	11291.4365234375	6461.02490234375	8622.166015625	17414.564453125	21690.716796875	12706.326171875	6572.1259765625	19463.6484375	19540.982421875	16575.560546875	18297.88671875	19000.318359375	19553.390625	16925.654296875	19823.853515625	18702.267578125	18075.94921875	19553.34765625	19594.216796875	20751.126953125	20126.119140625	18590.765625	15171.029296875	18876.146484375	21324.236328125	20090.4296875	19419.46484375	14034.603515625	19650.03515625	16242.6083984375	17486.94921875	19306.625	19808.390625	15850.8740234375	13926.1533203125	19081.36328125	16304.6552734375	20145.658203125	18819.947265625	20724.951171875	19723.560546875	20434.7734375	19552.8984375	15942.89453125	17289.37109375	19700.755859375	19074.6484375	16537.46484375	20299.7421875	19488.09375	17989.802734375	19843.541015625	19583.5	20164.59765625	20192.818359375	19924.33984375	15973.080078125	18436.564453125	20581.54296875	18761.3125	19649.02734375	14780.9736328125	19628.169921875	15362.853515625	17099.23828125	20465.82421875	19365.07421875	15506.615234375	13605.9189453125	18770.74609375	16041.05078125	21178.453125	19080.787109375	20731.91796875	19701.244140625
900	1200	14927.29296875	15969.3857421875	15700.0869140625	14447.9052734375	13709.556640625	18130.173828125	18044.35546875	15987.919921875	15928.5546875	18730.951171875	13125.4248046875	15223.4541015625	20914.45703125	11039.6064453125	14947.01171875	16360.6484375	15722.6279296875	15079.5947265625	13995.3505859375	17719.529296875	18640.779296875	16425.798828125	19359.65234375	14482.171875	21459.79296875	12339.7255859375	6964.5927734375	8747.3974609375	13546.3330078125	18903.373046875	10988.6884765625	6487.470703125	15433.693359375	14716.0673828125	12362.40625	13421.091796875	16486.916015625	15513.447265625	13193.82421875	16526.4921875	15132.37890625	14260.3857421875	16118.30859375	15586.736328125	15955.609375	16046.1552734375	15649.3291015625	11531.5869140625	15113.658203125	17378.376953125	16216.626953125	16234.6669921875	11336.236328125	15039.6533203125	12562.6669921875	13373.8193359375	14868.9140625	15541.373046875	11691.4638671875	10936.146484375	14991.2294921875	12592.1357421875	14972.1533203125	15053.833984375	16073.3955078125	16181.48828125	16512.40234375	14749.1796875	11263.251953125	12959.5771484375	16951.90625	15342.3525390625	12640.197265625	16470.46484375	15524.345703125	14025.328125	16394.3515625	15597.0107421875	16202.3642578125	15825.1787109375	15881.125	11870.0849609375	14450.8212890625	16470.595703125	14794.8974609375	16110.35546875	11853.9169921875	14792.5	11614.2880859375	13138.5947265625	16094.9619140625	14587.3759765625	11267.2490234375	10963.294921875	14220.7978515625	12169.640625	16157.1982421875	14593.8388671875	15923.939453125	16099.609375
1200	1500	13000.552734375	13042.01171875	13200.2587890625	12222.53515625	13130.939453125	15633.7236328125	15860.03515625	13071.31640625	14885.056640625	16988.45703125	12711.43359375	11892.1630859375	17829.74609375	12121.30859375	12893.099609375	13218.33203125	13171.263671875	12765.9501953125	13181.953125	14831.943359375	15243.095703125	15045.5625	17053.0390625	11869.580078125	18147.259765625	12845.947265625	7014.56494140625	8640.4716796875	11204.4921875	16462.2890625	10021.623046875	6368.3828125	13424.63671875	12164.2412109375	10847.6923828125	11465.689453125	13287.7978515625	13412.7060546875	11481.99609375	14409.638671875	12602.697265625	12205.1533203125	14023.142578125	13028.5283203125	13303.05078125	13257.775390625	13507.513671875	9689.5791015625	12926.6552734375	15265.296875	14389.2158203125	13686.1220703125	10267.0439453125	12167.5771484375	10932.78515625	11314.0087890625	12512.1103515625	13314.0869140625	10151.0146484375	9842.2333984375	12584.3505859375	10816.5771484375	12522.71875	12776.365234375	14250.501953125	14083.357421875	13788.1708984375	12144.6533203125	9047.2236328125	11038.39453125	14170.4521484375	13811.2314453125	10829.1259765625	14246.4912109375	12669.8388671875	11753.8837890625	14600.3720703125	12949.08203125	13554.3046875	13354.69921875	14334.5068359375	10074.734375	12142.7939453125	14645.8544921875	12380.697265625	13303.46484375	10618.76953125	12203.0986328125	10219.0419921875	11278.7216796875	13313.01171875	12228.8984375	9514.2626953125	10237.1201171875	11995.470703125	10442.7060546875	13505.7412109375	11775.1484375	13659.1669921875	13901.6552734375
1500	1800	11451.59765625	10662.9873046875	11540.9462890625	10886.3828125	12444.2060546875	13701.1591796875	14034.458984375	10923.9296875	13480.7890625	14704.3837890625	12016.224609375	9927.2431640625	14520.1748046875	12393.5078125	11406.591796875	11007.51953125	11400.685546875	11270.361328125	12177.15234375	13379.6357421875	13753.2587890625	13900.06640625	15424.2431640625	9345.15234375	14756.029296875	12783.2099609375	6832.44091796875	8395.4609375	9469.44921875	13996.947265625	9477.291015625	6284.36376953125	11756.35546875	10124.470703125	9631.689453125	9553.78125	11725.7998046875	12197.4296875	10243.2568359375	12630.9248046875	10752.0048828125	10979.9052734375	12799.7236328125	11337.974609375	11220.4970703125	11435.748046875	12178.1318359375	8544.384765625	11536.328125	13533.626953125	12656.8740234375	11394.0263671875	9602.2587890625	10019.7275390625	9931.8046875	9287.873046875	10853.9169921875	11802.3388671875	9333.1884765625	8940.166015625	11273.107421875	9532.994140625	10634.6015625	11135.5458984375	13259.3466796875	12857.0126953125	11740.8671875	10495.185546875	7853.0341796875	9688.9150390625	12379.5419921875	12513.484375	9610.6435546875	12339.16796875	10985.4140625	10488.9755859375	13145.59375	11430.4150390625	11786.189453125	11265.4501953125	12513.2197265625	8596.541015625	10361.572265625	12966.376953125	10823.2470703125	11324.1982421875	9924.8935546875	10268.451171875	9643.6298828125	10213.333984375	11796.0712890625	10694.8173828125	8554.1689453125	9867.1767578125	10107.2216796875	9129.1640625	11214.765625	9988.2099609375	12940.1640625	12244.9326171875
1800	2100	10320.2734375	9131.5087890625	10163.2001953125	9857.5576171875	11338.943359375	12732.412109375	12530.2578125	9469.248046875	12225.1494140625	13061.1474609375	10980.236328125	8288.5751953125	12278.177734375	11727.8388671875	10173.6962890625	9210.3916015625	9974.4296875	10383.552734375	11184.3271484375	12010.294921875	12348.8994140625	12325.6279296875	13135.615234375	8329.580078125	12315.0537109375	12116.1796875	6530.02490234375	8078.62548828125	8048.51611328125	12207.4599609375	8871.146484375	6173.59228515625	10353.28125	8758.232421875	8961.4033203125	9095.900390625	10440.5390625	11288.443359375	9483.607421875	11513.6171875	9457.0341796875	10012.8642578125	11475.6328125	9697.482421875	9562.8974609375	9677.169921875	11075.49609375	7591.0517578125	10075.2294921875	12338.8564453125	11267.958984375	10076.8408203125	8913.126953125	8560.427734375	9147.8662109375	8279.4111328125	9743.408203125	10771.63671875	8819.8837890625	8556.388671875	9759.423828125	8533.259765625	9804.564453125	9157.7333984375	12064.7392578125	11490.1513671875	10173.4619140625	8828.0771484375	7107.6728515625	8683.826171875	10494.2568359375	11309.7861328125	8654.92578125	11103.8564453125	9552.2109375	9447.814453125	11824.1796875	9912.37890625	10061.697265625	9684.4853515625	11084.5634765625	7574.14208984375	9076.5029296875	11489.6259765625	9396.2802734375	9946.4638671875	9415.3828125	8808.1806640625	8947.5771484375	9142.7607421875	10420.8583984375	9924.123046875	7996.025390625	9616.31640625	8679.9248046875	8405.3671875	9629.80859375	8215.353515625	11851.080078125	11133.0400390625
2100	2400	9341.818359375	7617.60009765625	9005.279296875	9057.0341796875	11074.9814453125	11519.0556640625	11234.873046875	7927.89208984375	11041.708984375	11848.8115234375	9902.009765625	7637.50927734375	9774.8818359375	10131.4716796875	9229.056640625	7925.10693359375	8784.6533203125	9840.1640625	10860.30859375	10934.125	11023.8798828125	11318.0693359375	11488.029296875	7431.7373046875	10603.166015625	11743.599609375	6019.0966796875	7797.79443359375	6948.607421875	10486.4306640625	8451.2158203125	5996.4609375	9122.0205078125	7831.03271484375	8656.345703125	8056.6376953125	8634.513671875	10358.8076171875	8970.4541015625	10341.5419921875	8207.4501953125	9345.3583984375	10290.513671875	8711.5361328125	8626.546875	8494.8642578125	9900.4365234375	6661.7421875	9141.9873046875	10994.748046875	10013.6982421875	8934.0576171875	8441.8779296875	7882.45361328125	8573.9296875	7422.826171875	8942.734375	9957.25390625	8395.1484375	8046.2958984375	8766.466796875	7691.7392578125	8123.2783203125	8176.17431640625	11921.8408203125	10381.7109375	9153.7177734375	7437.79931640625	6455.12744140625	8177.048828125	9090.478515625	10749.7001953125	8177.404296875	10012.4130859375	8353.99609375	8733.7666015625	10736.0078125	8926.3955078125	9034.9423828125	8582.8935546875	9588.013671875	6681.19677734375	8004.96923828125	10262.5576171875	8717.2490234375	8732.9296875	8979.2373046875	7433.19775390625	8776.462890625	8202.9609375	8929.0703125	9240.8994140625	7625.5205078125	9351.8642578125	7772.900390625	7794.3779296875	8321.0537109375	7309.5458984375	10651.103515625	9995.328125
2400	2700	8550.4150390625	6626.9521484375	7974.7802734375	8558.4912109375	9898.787109375	10463.478515625	9790.892578125	7097.40625	10098.267578125	10199.0927734375	9151.966796875	6651.703125	8717.8544921875	9635.23828125	8398.7314453125	6887.2265625	7725.5908203125	8662.7802734375	10077.5400390625	10184.33203125	10735.84375	10169.7783203125	9967.369140625	6740.82861328125	8928.1982421875	9947.69921875	5725.83349609375	7505.330078125	6102.61328125	9145.640625	8085.18603515625	5824.5009765625	8147.00634765625	6787.375	8200.19140625	7511.30615234375	7509.97607421875	9604.4345703125	8557.1767578125	9494.6083984375	7600.5595703125	8792.52734375	9621.224609375	7806.3505859375	7273.98779296875	7664.21142578125	8919.2451171875	6369.17626953125	8493.33203125	10052.580078125	9275.017578125	8039.1396484375	8201.0361328125	6765.92626953125	8272.33984375	6567.96484375	7762.826171875	9701.12109375	8063.4404296875	8002.7373046875	7866.13427734375	7322.45849609375	7548.32861328125	6984.099609375	10710.8974609375	9694.4521484375	8280.162109375	6355.29931640625	6411.2392578125	7768.75439453125	8286.044921875	9790.3125	7842.59765625	8837.5546875	7366.38134765625	7941.958984375	9626.9462890625	7977.693359375	7779.3076171875	7427.50439453125	8933.83203125	6394.43310546875	7195.05908203125	9434.111328125	7665.8037109375	7848.36865234375	8827.7177734375	6855.54931640625	8566.9755859375	7808.55029296875	7980.6630859375	8760.0224609375	7147.021484375	9254.1455078125	6606.94970703125	7474.07080078125	7131.32373046875	5988.6875	10438.2294921875	8993.5546875
