frame_start	frame_end	parasubiculum	HATA	fimbria	hippocampal_fissure	HP_tail	presubiculum-head	presubiculum-body	subiculum-head	subiculum-body	CA1-head	CA1-body	CA3-head	CA3-body	CA4-head	CA4-body	GC-ML-DG-head	GC-ML-DG-body	molecular_layer_HP-head	molecular_layer_HP-body	Lateral-nucleus	Basal-nucleus	Central-nucleus	Medial-nucleus	Cortical-nucleus	Accessory-Basal-nucleus	Corticoamygdaloid-transitio	Anterior-amygdaloid-area-AAA	Paralaminar-nucleus
0	30	30.29458	191.9188	102.15838	69.43104	22.72425	43.3378	97.66317	50.82821	49.28118	137.08376	50.23897	122.12598	69.38012	67.7817	73.74864	71.63727	80.16348	89.10294	75.94388	61.62038	61.35906	64.70372	108.43268	89.73259	70.09695	61.3067	22.8277	54.7266
30	60	5016.18506	2661.62725	4789.5137	3219.99571	2865.92849	3321.31019	4109.51694	2479.36832	3335.77769	2735.28967	2503.37306	3534.11145	3968.70288	3137.73385	4108.25112	3044.27741	4065.68202	2856.65006	3724.66081	2463.92638	3096.78149	2792.78847	3029.01498	3034.20834	3180.59563	3787.19529	3592.35306	3198.59753
60	90	12179.85008	11871.86693	11701.16392	11583.44557	12352.48869	11526.95858	13321.66143	11305.89802	10073.16486	12000.45562	7910.5024	13568.7961	9436.8237	12346.42944	9901.23569	12296.72749	10317.24523	12291.96853	9958.80825	11228.91483	13907.66573	9556.15065	9386.49768	9840.81897	12211.40282	13715.853	11114.96442	13696.30098
90	120	25922.63258	24516.71493	24540.20205	21797.11798	23225.21165	23394.07693	22574.24738	22235.31151	19352.95491	22326.7058	18288.94239	23088.83919	22775.77234	22446.13719	22067.26342	21969.2364	21912.73555	22721.96961	20805.01752	20003.41071	22182.97564	18425.88601	18689.63281	17503.96753	20921.67147	22916.66768	18887.67847	27022.51359
120	150	27024.9693	32988.84214	32274.49612	30909.73287	30705.1645	29630.74945	29250.53656	31126.94422	29317.17586	31694.60812	27711.92046	33241.35516	30210.97453	32231.32045	29831.89819	31643.37992	29707.82546	31677.83975	29391.5167	27436.33776	31904.99576	28428.24662	25084.73853	25731.79053	31756.95878	29573.38394	25081.05151	31962.82078
150	180	32897.56453	31450.36124	35976.86191	37806.55624	33569.33922	35270.7443	35237.10275	38170.4235	35653.95258	36474.00659	30289.49835	33808.48787	34907.16484	36734.74495	36820.23964	35617.11333	36035.54379	37966.37149	34923.81792	32202.7806	34545.10741	30240.07437	30897.59961	28285.03784	32843.62834	31780.48846	32334.93396	36304.74227
180	240	30753.36266	29300.09367	37146.46842	35340.57672	33740.55234	33363.51225	32875.53354	35603.15475	34004.32477	33081.18764	29908.75994	37015.66094	34866.50146	37505.56077	35873.23976	36066.62345	35531.97713	35370.43487	33944.65701	35061.51546	36676.43731	31201.2159	29925.7063	29510.33228	33765.10623	32316.34889	38082.86841	35251.47359
240	300	29830.58836	30064.3029	34988.94399	32625.42813	33503.57677	31437.47153	33295.87148	34328.11831	35356.69937	30620.73487	26455.20267	33331.8136	32146.40299	34073.50103	34892.81008	32885.80457	34654.3138	32464.09676	32489.1063	34211.12789	35762.57983	31619.80852	32788.42871	31167.36523	34506.74903	33100.69637	32565.20508	35966.88508
300	360	30272.39531	27780.78397	34787.0806	34438.75493	32380.54904	34233.95786	32189.12765	35386.23105	35194.76813	30483.57625	28518.19846	29362.43877	32587.82678	32407.1767	35106.54653	31607.61874	35306.65614	33231.12899	33602.93633	31702.18576	33512.9953	32760.84736	35120.53638	33072.4646	33321.01394	32303.51064	35761.30664	35542.30797
360	480	26203.71867	24870.75603	30715.33566	30276.85124	29389.71274	28551.99598	30005.85081	30995.70185	31049.40961	28144.32783	26113.81272	27568.31922	29492.78874	29347.4541	30538.41223	28402.05636	30452.65692	29569.90741	29497.89861	28961.60777	31857.79418	28857.97972	29703.06714	28380.38525	30416.95471	28655.45433	32016.28247	31065.76102
480	600	25386.41883	21969.87203	27578.00209	25920.44082	25856.33537	25657.6029	25496.44366	28786.33866	26774.17032	24295.67945	23262.71823	22535.42626	25763.7299	24155.05179	26994.9863	23553.45936	26995.89243	25476.95742	25747.94249	27047.54003	28734.94236	25698.39513	26012.90161	26267.88086	27161.57935	26652.58938	28545.4873	29189.20258
600	900	19989.32492	18564.87831	22344.88818	21924.03399	21062.90779	21348.36041	22074.36827	23601.95559	22412.67133	20468.68499	18900.59911	18947.45162	20814.26143	20491.76289	22093.89465	20049.70184	22050.54442	21568.925	21108.47341	23280.99187	23922.09898	22010.18224	22548.14697	22011.08887	22800.37947	22105.38471	24937.24976	23585.30156
900	1200	16787.58031	15424.06662	17549.24999	17310.0822	16381.5724	17113.00861	16139.24822	18525.8569	17129.47767	16682.63292	15734.37339	15377.52669	16815.55658	16200.69456	17108.14903	16226.55279	17086.03487	17292.44678	16523.58199	18072.6953	17761.6616	18743.25353	21189.07129	19777.38281	17463.28286	17011.23343	20761.59827	17240.07039
1200	1500	13275.67813	12100.23637	14271.59246	14435.12731	14467.36988	14608.57322	14955.93741	15083.7931	14900.25898	13646.99093	13284.76961	13115.30808	13363.34395	13777.14555	13693.23612	13852.598	13852.74193	14174.78459	13771.12901	14775.8661	14334.32254	16019.34743	17903.04541	16811.69727	14554.09793	14666.52371	16675.54486	13722.88742
1500	1800	11689.81812	11624.11532	12185.24198	11738.05502	11180.2835	12648.94295	11932.77817	12632.67738	12096.76335	11876.76619	11254.19558	11422.03291	11408.22479	11192.23114	11277.0568	11621.33161	11421.14263	11869.78455	11430.84604	12514.5839	12350.65698	13907.09582	14608.0199	15148.01343	12847.19257	12481.99462	14163.83612	11031.8741
1800	2100	10033.41926	11718.78214	10999.57914	10605.74421	11127.19099	10376.91985	10550.91067	11533.87939	10534.72078	10795.09072	10894.5791	10833.52554	10709.20968	10442.18616	10299.13205	10399.04471	10277.65407	10807.43137	10344.17463	10574.04434	11024.70569	13827.39059	15093.49402	14129.80151	12411.96759	11816.65495	12536.07556	9466.33926
2100	2400	9975.22613	10131.93975	9287.02824	9082.61069	8585.86487	10319.98967	9560.45978	9708.06804	9608.09923	8872.51171	9698.30429	8542.9394	9281.6818	8292.84058	8798.95988	8806.2171	8980.43421	9101.66333	9197.45855	9668.79895	9067.49565	11696.22153	12130.00488	12530.8175	10412.99743	10415.55068	10899.95966	8506.89271
2400	2700	7849.78018	9090.6133	8855.58619	8639.37445	8752.89168	8870.67914	7889.34964	9686.59665	10041.38239	8641.28938	9353.92342	7996.32319	8716.22551	7896.24242	8560.18657	8138.49871	8688.78842	8594.35035	8761.06083	8753.06115	8757.86834	10139.07193	10282.39221	10420.91956	9550.43248	9209.94215	9479.9985	7613.49316
2700	3000	8266.1474	7426.20932	7800.88883	7709.92359	7880.96769	9124.86414	8089.97274	8206.34299	7856.54114	7188.78288	7945.00814	7823.90706	7879.01373	7908.31995	7192.16505	8035.8138	7333.57868	7672.93482	7612.29567	7635.87318	8075.94213	9531.47284	9923.71191	9643.55774	8663.78347	8225.77944	9612.7605	6440.62445
3000	3300	6848.76164	8132.93977	8341.31465	6336.29394	7365.30482	6665.66436	6352.66705	6111.52583	6746.78484	7032.77683	8273.35595	7413.47553	8158.45625	6272.3225	7211.16634	6778.32768	7339.60618	6528.31079	7201.20626	7530.39644	7443.389	8823.87979	8942.80469	9181.37573	8162.33969	7254.6201	9223.46939	5896.29082
3300	3600	6905.39846	7054.6775	7342.96028	6341.02475	5929.1461	6500.86733	6257.52966	6974.92427	6038.4031	6884.32286	6675.24329	7290.73724	7651.48755	6494.70801	6425.55769	6462.6617	6323.02265	6753.4935	6409.63442	7589.36739	6531.12755	9083.44625	10311.60571	9612.3894	7224.86769	6421.61595	8033.01559	6232.45221
3600	3900	6024.12162	6114.4216	6923.37325	6266.3605	6888.33282	7850.98756	6236.99776	7165.98434	6815.04482	5454.2534	6911.34918	6455.18731	6833.54837	6151.20256	6805.85804	6334.36299	6820.51206	5867.69256	6700.8844	5645.97859	5461.85934	7277.76395	7062.31622	7755.29675	6356.22042	6431.15595	5789.44904	5199.84645
3900	4200	6665.39816	7474.33878	6449.53666	6161.37661	5318.50708	6334.9699	6076.17486	5615.64829	6732.51354	6486.03091	6352.21951	6347.54634	6704.76082	5632.51046	6456.45241	6169.63547	6399.95871	6216.83237	6489.41057	5517.45404	6363.94728	6229.40717	5153.69684	6457.24231	7604.9473	7240.56074	5783.31061	4962.96402
4200	4500	5566.97758	4378.67701	4579.93282	5214.45514	4912.31878	4873.33216	4456.52143	5259.34563	4470.416	5752.91778	6133.73882	5374.89604	5226.8217	5880.4924	4657.65084	5923.46633	4441.54334	5405.3334	4853.8815	5717.63414	4808.62707	7246.96653	5729.36298	6390.229	5946.2535	5519.14245	5518.52402	4409.90783
4500	4800	5152.50568	6813.17347	4229.46588	4937.37094	3893.57571	6159.66314	5061.93108	5323.69382	4790.96301	4896.79477	5212.12923	6215.48449	4068.23882	5981.23391	3882.76179	5606.37476	3997.17557	4997.61227	4274.33371	4670.55973	5787.80927	5758.89348	4817.27277	5514.35431	6209.9532	5964.37786	7287.03595	4517.20973
4800	5100	5007.46449	6198.19631	4505.18427	4308.43048	6266.55729	4576.4073	4511.68635	4635.51807	5074.22152	4784.37965	5325.79259	4764.91846	4578.51137	4523.38234	4481.76074	4416.05181	4456.14682	4429.03547	4589.95841	4762.01947	5684.65134	7329.86281	6223.17719	5830.96729	6664.71479	6217.05418	7470.8739	4374.0294
5100	5400	3894.20458	6184.76503	5381.74022	4781.93223	4208.19386	4528.51353	4401.23103	5469.38226	5280.46433	4744.00661	6484.19651	5566.18378	6114.62161	5230.69565	5324.51572	4778.76805	5399.37543	4831.61543	5579.11063	4129.96863	3221.03106	4192.12815	4354.62411	4574.13708	3891.09694	4231.07642	3654.31682	3817.16057
