frame_start	frame_end	parasubiculum	HATA	fimbria	hippocampal_fissure	HP_tail	presubiculum-head	presubiculum-body	subiculum-head	subiculum-body	CA1-head	CA1-body	CA3-head	CA3-body	CA4-head	CA4-body	GC-ML-DG-head	GC-ML-DG-body	molecular_layer_HP-head	molecular_layer_HP-body	Lateral-nucleus	Basal-nucleus	Central-nucleus	Medial-nucleus	Cortical-nucleus	Accessory-Basal-nucleus	Corticoamygdaloid-transitio	Anterior-amygdaloid-area-AAA	Paralaminar-nucleus
0	30	65.65712	9.62205	13.69443	24.90775	3.52944	50.48264	3.04347	10.51577	14.17713	27.3786	80.3079	18.8659	15.09282	37.6719	16.52734	38.94112	22.92135	24.0279	25.80374	18.88176	6.0086	4.55481	3.94189	3.7047	4.50994	5.3033	11.3247	8.71859
30	60	1125.21041	2235.88455	1876.18441	2034.5691	1680.33729	1558.94857	1432.13393	1651.38082	2186.83539	2235.58614	2403.55549	1852.93404	2235.40753	1985.00767	2379.9317	2075.30205	2218.58969	1956.64027	2123.06413	1691.22738	2019.62942	1609.04064	2141.0468	2179.55114	2065.16839	2308.02711	1200.26931	2071.90919
60	90	5467.75758	10525.84913	8156.49275	8406.8874	8733.6601	6155.59236	8247.92701	6419.44318	10051.44571	8306.84808	8517.67329	8463.10075	7438.81674	8304.54554	9048.39214	8431.9066	9098.93104	7757.86459	8645.36154	7010.59572	9262.29949	9739.66587	9197.05156	9627.49554	9525.66713	8544.93912	6625.21474	9012.44429
90	120	10758.17425	17549.45009	15043.91644	16191.04882	16283.55141	13911.81113	14357.0277	12531.77783	17419.99786	15900.49724	18428.14877	16900.57254	15295.2443	16288.87969	16273.26222	16373.76588	16292.55022	15489.6618	16189.03537	13589.73576	16810.47811	15976.46114	18056.36426	17285.38532	16422.65745	15057.31484	13406.33978	16508.85122
120	150	12642.62226	22136.83167	21854.1558	23636.08912	23492.66087	17259.26336	21604.07897	17765.17206	25452.51274	23607.28572	26680.66352	24437.60495	23884.46789	23032.19955	24300.97672	22755.78082	24153.5195	22298.01944	24245.72782	22872.09744	23302.4748	24227.73683	22401.075	23882.71866	23065.0408	19554.49237	18028.58041	22083.53622
150	180	12947.35491	23689.77022	25542.34321	26428.4296	26697.93842	19261.45088	25266.06092	20762.72539	28757.96877	24518.52965	29992.67395	27190.91985	26004.6213	25899.26671	28094.67967	24961.55536	27925.8709	24743.75797	27623.34335	22309.55105	24759.06332	31074.69977	25669.82539	29283.68601	29332.66224	22174.40922	18316.61426	22040.41633
180	240	13912.38038	23670.69177	26345.39255	25537.72109	27800.07832	19020.55909	24675.55651	20528.05263	28371.94288	25486.63971	29965.83511	25549.68271	26480.34103	23878.07458	28164.58205	23618.28719	28320.67924	24541.00587	27601.92143	24446.26452	23024.05041	28380.41622	25890.17031	26463.09012	26030.09247	19736.48052	20915.03179	21057.10777
240	300	12696.7687	22380.3145	25413.32112	25615.92521	26292.1336	18726.99239	21316.01334	20878.60379	27327.76468	24347.25233	29125.77212	23697.37423	26656.25407	23250.83409	27328.98054	22893.5621	26973.95781	24126.99891	26371.11674	23561.72943	23039.46514	31031.48703	26796.91875	27772.8152	27114.47254	21103.59089	20916.46175	19812.43589
300	360	12797.73161	22622.84942	24609.44174	24628.35517	25711.46252	18513.7443	21207.20404	21473.31322	25826.89021	23874.67159	28443.30488	24116.14732	25150.64474	23758.17545	25854.85574	23471.06142	25724.34374	23766.06854	25370.13372	22783.29706	23366.52633	26487.70388	25021.46094	26627.09728	27209.74537	21634.88087	20110.70181	20891.37115
360	480	11641.87804	20899.20371	22275.64008	22862.47184	22786.37136	17419.07537	19129.48769	20819.34777	24328.2729	22355.62008	24798.27096	22596.1878	23334.21949	22629.43428	24192.68365	22069.35105	23698.55162	22422.67977	23121.97437	22800.53506	22950.89546	24740.20147	21325.34414	23301.2793	24438.73284	19505.01217	21835.86719	19340.32982
480	600	13067.17252	17031.85274	21478.84294	21286.4964	19712.66449	17612.93298	17838.44154	19284.61972	22593.33867	20390.82961	21686.24951	21434.65993	21477.12926	21486.29821	22850.1576	20696.99351	22428.68556	20863.39153	21359.90476	21169.66143	21091.55051	22674.54367	20195.84063	21256.66071	22540.27917	17543.42223	20261.35581	16998.82112
600	900	12057.93233	14904.41567	17572.75491	18152.27496	16355.32293	16331.57915	15715.25356	17662.20474	18942.49625	17318.97764	17973.14749	17865.48285	17317.92634	18678.49888	18424.36578	17891.38513	18278.95231	18278.84344	17768.13356	17741.41656	18295.94665	18164.38226	16416.51543	17035.04501	18346.39343	15200.68289	17309.89642	16668.21938
900	1200	11473.0045	11875.16684	14376.51363	15258.50681	12636.99336	14405.14539	12879.6441	15491.59561	14846.29139	14269.60562	14814.56149	14960.57856	14875.81778	15213.96669	15076.55059	14705.08608	14868.76855	15316.19006	14586.66543	15509.71804	15011.19632	15543.35414	13930.48594	14152.90123	14501.89178	11939.1423	15115.43629	13034.11656
1200	1500	10596.90948	11125.68832	12518.62449	13151.21071	11397.04837	13487.59396	11876.54685	14248.14809	12774.47444	12155.38872	12026.17591	12497.00037	12267.7095	13524.974	12461.00663	13189.34757	12478.777	13414.2261	12309.25868	13491.78782	12067.6489	12763.62748	13903.76348	13741.52586	11880.15487	10276.12099	13137.55755	12070.56572
1500	1800	8770.89275	10513.33774	12038.81641	10889.57431	9761.21183	10411.97031	10311.99172	12294.7625	10866.02398	10552.83081	10286.02157	10819.09033	11528.46247	11122.14582	11332.42336	11015.63496	11113.40528	11128.78958	10732.75797	12804.32776	10967.93758	11794.67991	12407.18848	11452.82733	11175.34499	10407.34938	10221.81321	10400.95206
1800	2100	8140.94853	8910.48436	10002.09724	9704.25818	8508.48519	9318.40914	8552.47564	10527.20254	9670.50037	9431.05789	10641.00612	9588.06873	10430.7637	9473.08811	9800.95702	9551.10316	9814.56488	9745.61053	9840.14696	10369.70945	8483.23761	10741.08233	11267.93828	11229.0784	9636.11848	8401.80364	9148.96277	8003.13751
2100	2400	7324.41204	9517.24489	9809.8357	8318.80515	8028.51479	7570.85138	8488.53277	8801.22781	8877.34478	8685.7762	9418.17714	8570.60793	9800.64762	8204.77808	9288.62113	8454.09428	9349.88648	8421.84766	9268.77889	9432.02979	8505.90967	10771.28661	10018.64707	9734.03836	9126.26152	8057.38524	8639.38766	7423.80259
2400	2700	6511.89332	9578.22246	9724.1034	8226.9069	7627.0484	7957.56651	7791.99003	8352.36307	8358.7895	7755.0081	8573.16278	8527.01607	9187.57189	7746.69733	8911.18475	7836.36875	8926.16701	7939.18861	8610.99421	8843.40211	7448.43157	10017.47	9996.58711	9687.73014	8567.2458	8213.49287	7089.97732	6989.99792
2700	3000	6575.30894	9452.05714	8773.38264	6675.00562	7104.78974	6094.00258	7063.33835	7160.94027	7202.58162	7215.81809	7329.08274	6824.70911	8238.44168	6848.28964	7722.83678	7173.48841	7820.30737	6878.01564	7537.42459	7446.93983	5774.11177	8406.88309	9096.24043	8817.06913	7481.81918	8143.18329	6707.25224	5201.57861
3000	3300	5870.37029	7865.57007	8927.50312	6290.81352	6468.62791	5838.15416	6022.23605	6518.21594	6678.8651	6966.937	7423.63137	7043.73459	8352.89688	7300.81652	7734.23218	7337.10959	7701.99493	6749.6549	7240.80645	6847.77349	6014.94312	8152.75277	8368.45479	8114.9176	7345.65442	6690.3505	6120.04086	5252.32678
3300	3600	4379.52499	7397.76229	6980.43298	6553.0298	6485.61135	5582.71275	5804.7945	6083.03673	6146.74429	7050.35938	6921.35299	7802.00431	7136.04771	7053.48468	6647.87928	7200.08782	6606.78586	6663.21799	6535.89424	6989.41252	6002.23903	8546.27708	8624.68896	8797.236	7659.64352	6638.27679	6232.56557	5226.96634
3600	3900	5145.83576	7652.84296	8060.69894	6363.12973	5408.79259	5696.74806	6257.82374	6019.28503	6746.812	6551.92317	6441.28951	7097.08468	7544.02808	6291.93771	7093.05593	6378.07122	7014.76435	6284.06224	6693.90554	6455.93316	6317.80239	6823.86958	7459.74248	7687.8477	7303.22686	7060.47758	5460.7185	5948.47821
3900	4200	5546.51212	5494.9888	7566.68231	5868.71637	5530.91062	5603.41069	4949.07805	5643.17636	5520.06387	6003.92493	6642.08482	5704.60274	7939.17723	5766.01101	6952.20663	5913.81303	6663.09442	5842.93374	6399.43339	5801.85727	4981.71912	5553.11871	5990.88027	5902.91755	5677.2443	5862.72612	4782.32935	4931.94678
4200	4500	4409.49859	7038.1349	5998.98447	5440.43503	4937.77714	5195.00982	3696.88064	5282.17291	5340.95718	5314.74839	6647.87033	5715.98104	6323.3444	5791.70775	5787.26142	5739.42536	5635.71648	5364.41656	5506.80347	5990.70804	4645.49137	4888.24686	6440.48447	5977.95187	5124.27864	5475.78724	5392.11183	4210.31217
4500	4800	4082.60056	7532.71092	6661.22471	5561.98942	4684.30392	5092.54804	5257.93829	5396.98489	5469.62595	5696.91191	6442.96141	7337.87787	7026.65656	5773.49111	6097.74372	5780.08741	6209.16836	5471.04837	6199.80246	4284.91481	5331.23123	4982.34003	5251.83936	5807.88302	6358.70994	5645.90912	4538.17945	4673.66202
4800	5100	4684.31905	4579.05221	5934.293	4998.52671	4903.38878	4596.74662	4309.74241	4141.71361	5533.11584	4852.80464	6518.89215	6454.23583	6334.35754	5471.66467	5690.54281	5326.27483	5598.60812	4686.08409	5652.21364	5344.55951	4286.10614	5022.55293	4708.96226	4043.30118	3996.35792	3650.4667	4401.56283	4139.71678
5100	5400	4030.32085	6430.1581	5150.12575	4312.25415	4364.86557	3823.30933	4410.89198	4004.74206	5091.20447	4155.04383	5570.22066	4109.22993	5412.97724	3167.25657	5236.36555	3496.94952	5150.40087	3701.09808	5212.28138	4827.02046	3795.48259	3422.68133	5951.43857	4902.81908	4309.82618	4750.25406	4225.97096	3927.58798
5400	5700	4662.56269	3830.76776	4843.0904	4310.92661	4986.80522	3945.88331	4279.92793	3672.54282	5628.15664	4224.06302	5123.46796	6067.39947	5244.92345	5891.85543	5349.31974	5379.41889	5344.07725	4328.73964	5177.11917	4323.94421	3887.94823	4068.69683	4530.51104	4326.14646	3889.12191	3443.25588	4777.49811	3616.39623
5700	6000	4017.40542	4566.95253	5578.36511	4707.80199	4223.84828	4681.52318	5372.41186	3693.66855	4709.22957	4145.75105	4606.64706	5685.75661	5291.15062	4179.74796	5219.26196	4052.0697	5305.96614	4246.3055	5238.66282	3466.5069	3841.44142	5193.56182	5274.58521	5776.59897	4390.49068	3783.95152	4554.6263	3919.72046
6000	6300	3875.04348	3734.31429	3771.08894	3568.15213	3096.04906	3512.26848	3482.8912	3077.71332	4715.53225	3670.23275	4418.51163	5091.2693	4188.26096	4444.7571	4160.75357	4380.88656	4191.61099	3282.93512	4240.42665	4129.55217	3905.65478	2971.4589	3908.38086	3105.95961	3332.81308	3487.07832	5346.20838	3740.54939
6300	6600	2696.7989	4957.40665	3518.26288	2977.06628	3350.48605	2666.68456	4368.82307	2896.98029	3345.28345	3036.85315	4711.9546	3476.9219	3937.80168	2847.72326	3393.47107	2965.13594	3647.40903	2910.41817	4061.80782	3795.6716	3154.41083	2829.53232	2819.51333	3258.74642	3083.53747	3611.99653	4939.99976	1784.26967
6600	6900	2652.31261	4136.22778	3551.32133	4011.10973	3853.10263	2745.16926	3229.03821	3319.84997	3266.26559	4295.53156	3880.64133	4803.54088	3743.96879	4250.16099	3425.23429	4130.74911	3526.09891	4251.57296	3607.88439	3897.90732	3544.89189	3386.14489	2964.39009	2586.87483	3543.78537	2866.63026	3477.71191	2313.90398
6900	7200	4088.35226	4067.52532	5692.53812	3966.01769	5272.41197	2810.63767	5223.05935	4517.65363	5158.59199	4400.12133	4438.31698	3900.85105	5103.02876	3532.64764	5457.26268	3607.84373	5792.14176	4030.06938	5483.72977	3863.52276	4294.46525	5146.67613	3270.89368	3626.17045	4590.27509	4398.03066	4994.02742	4546.11021
