frame_start	frame_end	Left-Cerebral-White-Matter	Left-Cerebellum-White-Matter	Left-Cerebellum-Cortex	Left-Thalamus	Left-Caudate	Left-Putamen	Left-Pallidum	Brain-Stem	Left-Hippocampus	Left-Amygdala	CSF	Left-Accumbens-area	Left-VentralDC	Left-choroid-plexus	Right-Cerebral-White-Matter	Right-Cerebellum-White-Matter	Right-Cerebellum-Cortex	Right-Thalamus	Right-Caudate	Right-Putamen	Right-Pallidum	Right-Hippocampus	Right-Amygdala	Right-Accumbens-area	Right-VentralDC	Right-choroid-plexus	AirCavity	Skull	Vermis	Pons	CSF-ExtraCerebral	Head-ExtraCerebral	ctx-lh-bankssts	ctx-lh-caudalanteriorcingulate	ctx-lh-caudalmiddlefrontal	ctx-lh-cuneus	ctx-lh-entorhinal	ctx-lh-fusiform	ctx-lh-inferiorparietal	ctx-lh-inferiortemporal	ctx-lh-isthmuscingulate	ctx-lh-lateraloccipital	ctx-lh-lateralorbitofrontal	ctx-lh-lingual	ctx-lh-medialorbitofrontal	ctx-lh-middletemporal	ctx-lh-parahippocampal	ctx-lh-paracentral	ctx-lh-parsopercularis	ctx-lh-parsorbitalis	ctx-lh-parstriangularis	ctx-lh-pericalcarine	ctx-lh-postcentral	ctx-lh-posteriorcingulate	ctx-lh-precentral	ctx-lh-precuneus	ctx-lh-rostralanteriorcingulate	ctx-lh-rostralmiddlefrontal	ctx-lh-superiorfrontal	ctx-lh-superiorparietal	ctx-lh-superiortemporal	ctx-lh-supramarginal	ctx-lh-frontalpole	ctx-lh-temporalpole	ctx-lh-transversetemporal	ctx-lh-insula	ctx-rh-bankssts	ctx-rh-caudalanteriorcingulate	ctx-rh-caudalmiddlefrontal	ctx-rh-cuneus	ctx-rh-entorhinal	ctx-rh-fusiform	ctx-rh-inferiorparietal	ctx-rh-inferiortemporal	ctx-rh-isthmuscingulate	ctx-rh-lateraloccipital	ctx-rh-lateralorbitofrontal	ctx-rh-lingual	ctx-rh-medialorbitofrontal	ctx-rh-middletemporal	ctx-rh-parahippocampal	ctx-rh-paracentral	ctx-rh-parsopercularis	ctx-rh-parsorbitalis	ctx-rh-parstriangularis	ctx-rh-pericalcarine	ctx-rh-postcentral	ctx-rh-posteriorcingulate	ctx-rh-precentral	ctx-rh-precuneus	ctx-rh-rostralanteriorcingulate	ctx-rh-rostralmiddlefrontal	ctx-rh-superiorfrontal	ctx-rh-superiorparietal	ctx-rh-superiortemporal	ctx-rh-supramarginal	ctx-rh-frontalpole	ctx-rh-temporalpole	ctx-rh-transversetemporal	ctx-rh-insula
0	30	10.865288734436035	28.429872512817383	3.2260985374450684	1.174615740776062	23.803516387939453	1.5052225589752197	106.59163665771484	9.706367492675781	47.21934509277344	-54.832008361816406	-12.619709014892578	368.0726623535156	44.74641799926758	43.27995300292969	7.94529914855957	3.403618812561035	22.082883834838867	18.408220291137695	13.312289237976074	30.26264190673828	85.06192779541016	40.690616607666016	97.26329040527344	271.5586853027344	50.91390609741211	60.91362762451172	5.744075775146484	27.332969665527344	29.649288177490234	1.7268497943878174	-9.989380836486816	15.407620429992676	-8.600104331970215	52.80106735229492	-13.7039155960083	8.1781005859375	274.47900390625	9.235363960266113	25.597057342529297	25.89026641845703	-6.6189680099487305	2.6587796211242676	12.666324615478516	29.72528839111328	0.3561154007911682	-11.961668014526367	-31.766246795654297	56.74974822998047	-2.2981114387512207	-54.38515090942383	17.363245010375977	2.993608236312866	6.351711750030518	1.1193064451217651	4.279239654541016	0.7650787830352783	41.68036651611328	-7.030224800109863	5.6874470710754395	4.942521095275879	41.20652770996094	-2.3358097076416016	-40.8201789855957	19.827226638793945	12.804062843322754	32.88513946533203	0.8289365768432617	87.54560852050781	6.870667934417725	0.44695723056793213	128.02142333984375	14.427166938781738	13.041462898254395	31.21820831298828	-4.3873186111450195	-0.05567210167646408	85.12647247314453	23.664960861206055	58.839439392089844	18.71764373779297	34.177040100097656	59.31010818481445	29.798818588256836	44.898372650146484	41.22372055053711	38.87857437133789	65.52677154541016	0.7146546840667725	33.46622848510742	31.37915802001953	-44.933128356933594	5.154308319091797	34.175376892089844	61.6801643371582	29.852848052978516	14.668379783630371	-36.71873474121094	-30.032363891601562	7.0393218994140625	70.630859375
30	60	1097.8580322265625	2305.806884765625	1542.329345703125	2515.20654296875	2748.96484375	3513.67919921875	1878.8525390625	1220.3116455078125	2356.7646484375	1826.666259765625	2442.221923828125	7694.4833984375	3418.292724609375	2372.171142578125	1106.1798095703125	2647.2783203125	1535.1927490234375	2277.523193359375	2213.716796875	3655.256591796875	2361.31005859375	1382.1087646484375	1514.5289306640625	9380.513671875	2484.91748046875	5113.482421875	-212.39259338378906	855.33447265625	3445.631103515625	1920.8372802734375	2193.349853515625	423.90185546875	1539.2532958984375	2269.28564453125	3338.4990234375	4112.73876953125	6873.05810546875	3997.40576171875	2963.959716796875	1842.1246337890625	2904.82275390625	1656.1473388671875	3095.692626953125	1765.1854248046875	3359.57861328125	1433.2655029296875	-1409.8094482421875	2627.81787109375	3645.538818359375	89.099365234375	3780.864013671875	3561.9453125	2704.71875	1989.70654296875	2784.94189453125	3340.32275390625	5209.685546875	3410.1767578125	3261.067626953125	2160.15185546875	2210.129150390625	4050.820068359375	2637.294677734375	-499.52349853515625	2031.8812255859375	3418.42333984375	4832.93017578125	1523.4039306640625	2657.301025390625	4591.43359375	8099.92822265625	3583.49267578125	3015.48974609375	1517.906494140625	2610.16162109375	2616.275390625	3655.974365234375	3126.57568359375	1934.3436279296875	1163.3951416015625	1200.8021240234375	4458.35791015625	3552.400634765625	987.6673583984375	3551.153564453125	3488.55224609375	2754.804443359375	966.3551025390625	2773.670654296875	4067.713134765625	2727.75048828125	3057.780029296875	3382.671630859375	2154.091796875	2663.56298828125	3295.897216796875	2800.1416015625	786.9109497070312	2563.21533203125	3377.0361328125
60	90	4823.74267578125	11413.5966796875	7389.33154296875	10702.7763671875	11976.1591796875	16017.35546875	7414.49609375	4675.45068359375	10607.7392578125	8247.1240234375	12080.5556640625	24431.263671875	9591.365234375	23215.052734375	4929.0556640625	10474.87890625	7617.58349609375	12439.662109375	13703.5009765625	14653.9755859375	8688.2626953125	9016.2177734375	9951.6298828125	21238.759765625	8755.8447265625	14194.681640625	-1179.89453125	3652.4267578125	15486.4990234375	8000.47900390625	8895.4296875	1961.614501953125	12329.1796875	8313.3798828125	15846.4951171875	17113.958984375	11728.068359375	17618.1640625	14032.580078125	7314.29150390625	8259.0537109375	7974.439453125	9778.2421875	10576.576171875	11533.4189453125	7867.83544921875	-1560.6492919921875	14135.03515625	15198.763671875	4580.00927734375	16835.337890625	17851.83984375	14215.48046875	3730.51708984375	12040.4267578125	16726.203125	19278.669921875	16757.244140625	15151.4443359375	11702.36328125	10199.92578125	16263.8349609375	15208.0498046875	2722.33935546875	10640.830078125	14363.3291015625	15077.31640625	130.54867553710938	12918.1142578125	23741.458984375	11047.0419921875	16952.55859375	14366.361328125	7203.869140625	10512.875	11490.84375	12961.7197265625	14668.23046875	8888.8935546875	5910.2109375	5479.54736328125	14945.5654296875	13988.2509765625	5991.50927734375	15287.4892578125	21523.984375	12915.857421875	8416.0576171875	12003.8505859375	15937.5087890625	15440.03515625	14521.0458984375	14370.017578125	11534.740234375	11156.6904296875	15747.3359375	19220.333984375	5907.77490234375	12307.001953125	11741.0400390625
90	120	9279.474609375	21132.625	14420.654296875	23183.541015625	25137.515625	30857.345703125	15291.4970703125	9327.7890625	21302.833984375	16454.5078125	21826.0390625	25340.08203125	14694.1787109375	37400.19140625	9514.1826171875	20449.310546875	14540.2900390625	24272.685546875	27191.513671875	29717.544921875	17027.16015625	17557.126953125	20806.263671875	27817.296875	14338.0771484375	36745.5625	-2446.968505859375	6774.09912109375	29836.8515625	15505.5595703125	16176.515625	3851.12158203125	28128.603515625	12860.6044921875	33991.17578125	40432.64453125	5748.89453125	36151.21875	27630.458984375	13213.8095703125	17233.908203125	16707.1953125	20656.494140625	22749.16796875	24474.7109375	16434.994140625	-4393.18701171875	24622.912109375	26205.732421875	8615.6953125	36531.63671875	33780.1015625	29872.626953125	9972.853515625	26226.150390625	30836.716796875	32432.380859375	32808.28515625	30291.30859375	23079.080078125	20015.89453125	31184.623046875	31180.3828125	6985.50146484375	22243.3046875	22917.150390625	31618.6796875	4960.78759765625	23973.1328125	42667.609375	9816.005859375	34791.50390625	27067.626953125	11990.9345703125	21414.142578125	22920.5234375	23423.66015625	25769.265625	19449.58984375	14045.7568359375	11556.4560546875	31831.6328125	25794.947265625	13417.3115234375	33226.35546875	47326.1015625	28052.0234375	13208.435546875	24289.18359375	31702.05078125	24999.26171875	29294.607421875	28324.615234375	24734.130859375	23313.537109375	27981.326171875	36379.19140625	13588.2255859375	23864.478515625	19730.6640625
120	150	13671.8359375	30502.494140625	20978.994140625	32882.1328125	38129.09765625	46339.06640625	17464.888671875	14606.046875	31673.720703125	25605.23828125	32697.7734375	15764.4375	17426.25390625	51364.16015625	13562.4619140625	30876.107421875	21293.908203125	34785.30859375	40719.21484375	42439.5703125	19057.056640625	27879.74609375	26792.50390625	17355.94140625	19385.763671875	51011.26953125	-4096.45458984375	10027.412109375	40725.078125	21859.44921875	22105.48828125	5647.41064453125	43304.078125	14218.5029296875	48513.1953125	60015.17578125	-7425.25341796875	53419.09765625	41823.77734375	19216.384765625	25523.638671875	25136.638671875	27774.52734375	31107.265625	35012.83984375	22744.05859375	-9194.619140625	35298.3203125	40236.859375	13345.6826171875	50553.87890625	53077.1796875	42121.609375	15023.1552734375	38356.76953125	47882.515625	45459.9609375	47744.375	43915.97265625	36902.09375	31486.84375	43775.48046875	44146.71875	15575.3544921875	32389.623046875	32437.5234375	43278.96875	81.41622924804688	35565.01953125	60908.10546875	2370.41552734375	53635.71875	41363.23046875	16722.87109375	30771.765625	31533.716796875	31789.701171875	40594.5078125	28430.65625	21456.029296875	8643.134765625	46276.5	36037.6796875	18921.822265625	45684.64453125	67477.59375	39433.5	21939.408203125	36690.62109375	47205.05859375	34601.73046875	44430.453125	42660.11328125	37370.35546875	33917.2265625	40764.15625	54005.36328125	18354.919921875	32697.83984375	28408.0078125
150	180	15062.1298828125	33770.953125	23757.041015625	38172.28515625	46348.9765625	50048.359375	17408.3671875	14606.3896484375	37603.578125	26326.669921875	32139.708984375	9303.0419921875	16690.767578125	54903.66796875	15387.3486328125	32565.3359375	23930.650390625	39746.75390625	49594.38671875	49432.359375	17075.716796875	28654.177734375	34332.4921875	12868.517578125	19604.958984375	71707.40625	-4874.08154296875	10747.357421875	47758.50390625	24094.09375	23256.197265625	6156.81005859375	49759.34375	19089.294921875	58185.171875	65239.625	-24180.986328125	60821.5703125	49409.8359375	19246.609375	29512.75	29304.9375	30829.650390625	34787.34765625	40231.5546875	28191.92578125	-12576.1591796875	43976.56640625	43457.453125	20330.978515625	56920.15625	61131.66015625	50585.88671875	16667.248046875	43709.9765625	56052.33984375	49288.40625	54766.17578125	51300.53515625	42839.06640625	34085.93359375	50148.4609375	49702.46484375	19966.208984375	31103.787109375	33988.484375	46184.67578125	8165.8583984375	41968.66796875	70536.7734375	-8193.2138671875	63769.69140625	47489.1171875	15106.4501953125	32426.5859375	34674.890625	31892.50390625	43474.98828125	33839.75390625	26721.482421875	15765.21875	54565.7890625	41796.28515625	24493.54296875	50285.2265625	75280.0625	46820.03515625	21189.0859375	41659.0546875	52072.46484375	39863.05078125	50054.7734375	48609.375	43275.1875	38702.33203125	47691.17578125	59764.08203125	25114.4453125	34310.1171875	29147.046875
180	240	15204.9658203125	31930.716796875	25205.375	39617.6328125	50646.37890625	51900.7109375	16977.599609375	15760.330078125	37146.65625	24195.953125	29113.0390625	13590.3515625	16442.796875	62601.08203125	15399.5869140625	32778.75390625	24671.537109375	41744.3359375	50563.39453125	50664.79296875	17014.439453125	32976.68359375	34608.0546875	12939.16796875	15933.998046875	56930.94140625	-5028.849609375	10458.333984375	46002.109375	23432.7890625	22391.19921875	6351.70703125	50075.1484375	22397.232421875	57227.54296875	65475.16015625	-24635.64453125	59831.10546875	50065.375	20014.29296875	26045.392578125	30432.736328125	30939.541015625	35905.234375	38630.1796875	29638.65234375	-7787.48583984375	47674.84375	43358.23046875	19000.744140625	57982.80078125	64559.3984375	51484.72265625	16307.7607421875	45687.92578125	55373.33203125	47986.3671875	55397.74609375	51691.4921875	45636.1484375	36483.06640625	50987.78125	51602.60546875	20561.26953125	27139.14453125	36567.0625	47190.625	3351.9521484375	41293.6328125	69962.453125	-11702.5859375	61819.48046875	49963.08203125	16511.11328125	28912.251953125	33682.77734375	32418.154296875	42297.8828125	36688.8046875	29091.955078125	16810.361328125	50741.52734375	43514.4765625	27312.291015625	52156.3984375	77423.3046875	49301.42578125	23662.126953125	43902.015625	55335.13671875	40343.55859375	51140.546875	50407.07421875	46245.64453125	38635.70703125	47348.5078125	58964.3203125	28997.73828125	33115.21875	29059.1953125
240	300	14441.740234375	30284.14453125	24681.599609375	37893.3203125	50697.23828125	52517.37109375	18175.662109375	15362.9189453125	35655.91015625	25915.75	28049.060546875	5155.1279296875	18662.8359375	52049.5	14805.1396484375	30956.423828125	24219.9375	41222.23046875	48675.56640625	49359.59375	16177.4033203125	32785.890625	34415.69921875	11322.533203125	15280.890625	59153.26171875	-4869.49267578125	10044.578125	47558.1875	23103.11328125	19977.26171875	6470.84619140625	48086.53125	24338.7578125	54701.7421875	59437.87109375	-20048.31640625	56578.51953125	48407.60546875	20712.763671875	25086.115234375	32148.802734375	32195.94921875	33675.484375	39314.0234375	30211.365234375	-3842.10302734375	43080.21875	42880.08203125	22248.171875	56266.56640625	66549.6171875	51459.96875	19845.85546875	44834.234375	53627.2109375	48887.54296875	54183.546875	50997.359375	46273.71875	36783.015625	49178.9296875	53516.859375	21549.65625	32078.021484375	33823.6796875	44987.265625	6465.232421875	41949.8828125	60440.21875	-10562.1220703125	58292.4453125	47864.49609375	17563.78515625	31247.21875	34340.30859375	32222.751953125	40599.30859375	36977.8046875	30304.056640625	16687.025390625	51478.8125	40575.02734375	27375.724609375	50462.578125	71131.734375	46344.65625	23079.943359375	44398.36328125	52247.6484375	38035.25390625	50607.33984375	49677.66015625	47570.203125	37806.15234375	45249.1640625	60838.37109375	28938.513671875	33666.5078125	31409.916015625
300	360	13852.6806640625	27407.70703125	24422.38671875	37686.32421875	46133.0859375	46767.9140625	20319.974609375	15930.966796875	34245.71484375	26956.119140625	21679.02734375	14021.513671875	17448.4609375	59009.05859375	13917.720703125	28215.04296875	24219.65234375	40893.12109375	47201.25	48158.48828125	18947.958984375	32434.607421875	32051.302734375	14924.0234375	15336.158203125	46526.19140625	-4768.21533203125	9751.8271484375	41327.546875	23438.28515625	16053.146484375	6338.7138671875	43986.1796875	20006.02734375	50872.65625	54309.625	-15446.14453125	53119.06640625	46151.4765625	21959.640625	31165.36328125	30560.46875	30767.806640625	34629.0234375	35159.43359375	29746.1015625	-1070.7742919921875	45275.12890625	40160.37109375	25367.41015625	52675.8515625	62469.8203125	48574.09375	17808.833984375	43191.44140625	50873.48828125	45722.12890625	51729.79296875	49747.07421875	44797.21484375	35002.80859375	44957.99609375	49225.49609375	25672.072265625	28317.296875	34787.11328125	43689.94921875	10546.3701171875	40630.56640625	58512.3359375	-5688.6806640625	54076.34375	45723.79296875	19199.0234375	28386.498046875	34291.28125	32272.40625	38976.09765625	35614.22265625	30966.515625	17356.013671875	47963.74609375	37398.21484375	29725.287109375	48193.828125	66722.8671875	47085.51953125	25279.484375	43296.84765625	48896.828125	35936.08203125	48562.3125	48260.15234375	46381.30078125	36807.46484375	44526.55078125	55448.42578125	30540.4453125	33017.34375	30452.0390625
360	480	13197.7734375	24989.765625	23051.06640625	36204.46875	42004.12890625	44636.91796875	18409.875	16528.232421875	29950.58203125	28188.25390625	15340.0361328125	13920.62890625	16085.6201171875	43111.33203125	13215.4033203125	25059.0859375	22849.12109375	38918.41796875	42157.76171875	43082.25390625	20054.625	29344.859375	32401.775390625	17945.638671875	15992.5068359375	47178.1875	-4194.01123046875	9270.142578125	35185.5703125	22546.375	11881.6318359375	6417.4931640625	38768.453125	24643.361328125	46111.84375	47373.11328125	-6460.287109375	44796.03515625	41470.015625	22535.666015625	25245.328125	28957.671875	30450.34375	32136.11328125	35636.265625	29860.443359375	5232.6982421875	40540.81640625	35893.3828125	25294.595703125	44326.09765625	51892.6484375	43624.375	21639.666015625	39799.93359375	45508.76953125	41176.02734375	46533.6796875	44007.62890625	41539.10546875	33260.171875	40150.69921875	46029.98046875	25793.69140625	29461.0078125	31405.25	37142.0078125	17284.74609375	37071.109375	48267.98828125	-3125.436279296875	45994.82421875	42454.234375	19872.833984375	30247.578125	31973.736328125	31371.3984375	34580.515625	33436.6015625	31516.611328125	19525.541015625	41223.6953125	34914.34765625	28714.587890625	42624.03515625	59837.4140625	42345.79296875	26003.140625	40420.98828125	42822.07421875	30655.767578125	44088.37109375	43349.015625	43746.09765625	33590.53125	39720.71484375	52911.73046875	29013.548828125	29492.513671875	27850.740234375
480	600	12486.54296875	21842.109375	20706.953125	33139.49609375	36207.21484375	38533.265625	19533.005859375	16495.9296875	27438.19921875	26903.2734375	9800.5537109375	16769.705078125	15567.48046875	32703.39453125	12300.421875	22098.23046875	20564.638671875	34057.78125	38158.42578125	37059.78125	19981.302734375	25296.677734375	32620.388671875	13308.4443359375	17136.62890625	37221.3828125	-3794.54052734375	8833.365234375	27520.015625	20321.525390625	7493.75146484375	6358.98193359375	31118.15234375	23094.099609375	39978.99609375	39594.390625	-1906.400634765625	36176.51953125	34280.5390625	22940.0234375	24140.3515625	25667.03125	27504.869140625	29075.4765625	31383.384765625	27048.689453125	7236.5849609375	34036.56640625	31079.615234375	24830.5703125	37181.59765625	44511.91015625	37038.58984375	19462.771484375	35156.8671875	38207.5078125	36116.39453125	39411.37890625	38149.78125	37686.2421875	30022.59765625	33541.82421875	41238.01171875	27495.046875	27523.396484375	29590.177734375	31279.25390625	16146.51953125	33142.4921875	41346.125	2876.05224609375	38505.4453125	36204.68359375	19967.671875	26780.1875	29762.8359375	27149.88671875	30323.05859375	29720.03515625	28994.92578125	19304.69140625	35959.109375	29973.228515625	26701.880859375	35725.20703125	46008.74609375	36366.16015625	27581.03125	35956.8203125	35774.73828125	27231.345703125	39514.98828125	37959.3984375	38423.0703125	29819.564453125	34819.359375	43669.3046875	28587.40625	26607.19921875	26194.06640625
600	900	11975.2216796875	18355.466796875	17262.736328125	27077.583984375	27708.18359375	30133.005859375	19520.337890625	15389.6357421875	22382.8828125	22002.4453125	3172.662109375	17638.287109375	16463.35546875	16607.21875	11689.8046875	18633.080078125	17146.705078125	28703.63671875	27804.2421875	27807.25390625	21039.265625	20930.677734375	25487.82421875	18105.4453125	17325.798828125	21832.708984375	-3180.2890625	8285.8017578125	20916.34375	18108.875	3683.61962890625	6332.51708984375	25438.458984375	22246.306640625	30397.53125	31683.015625	7695.38623046875	26280.986328125	26440.607421875	21845.96484375	19738.2421875	21555.060546875	23857.421875	25146.412109375	25251.27734375	23001.775390625	9880.892578125	28256.486328125	23983.36328125	23784.16796875	26881.244140625	29609.830078125	28303.29296875	19823.94140625	28421.25390625	29764.90625	25998.16796875	31195.923828125	29848.1953125	29928.896484375	23512.0546875	25899.115234375	35006.57421875	26490.103515625	24388.33984375	24394.9921875	24363.96875	19953.060546875	27324.2578125	32900.1328125	10040.998046875	27359.04296875	29223.220703125	19788.650390625	22756.02734375	25473.318359375	23832.853515625	23963.447265625	25452.34375	24858.48046875	17690.1875	28406.099609375	24002.390625	24548.107421875	28178.814453125	32004.583984375	29240.2265625	24414.60546875	29684.03125	27677.87109375	24508.5703125	31250.27734375	29838.197265625	31961.09765625	24044.37890625	27216.62109375	37034.2421875	25214.0703125	22969.01953125	22069.890625
900	1200	11990.6318359375	16071.544921875	13183.9140625	20877.376953125	17765.591796875	20801.60546875	20365.38671875	13574.0068359375	16659.892578125	17730.599609375	-692.0452270507812	17676.791015625	16137.6826171875	6895.71044921875	11654.1748046875	16128.650390625	13343.01953125	21193.6875	18147.556640625	19388.873046875	21513.224609375	15009.080078125	20859.3828125	19906.03125	17117.119140625	8407.3759765625	-2660.074462890625	8100.41748046875	13563.119140625	16415.712890625	1443.73095703125	6408.57275390625	18494.720703125	19243.921875	22527.556640625	25316.6171875	13129.9267578125	18783.96484375	18874.091796875	19340.142578125	16834.447265625	17071.373046875	18652.341796875	20607.8984375	20223.640625	18685.236328125	10801.205078125	20509.01171875	18400.619140625	21520.419921875	19041.501953125	19044.431640625	19886.390625	17716.330078125	20656.26171875	21591.734375	20095.859375	22895.87890625	21655.1171875	21941.908203125	18073.046875	18571.62890625	29405.224609375	23491.431640625	19419.728515625	19457.90234375	17486.228515625	17454.951171875	20681.322265625	25976.15625	13834.0771484375	18495.185546875	21680.5	18990.125	19979.7421875	20942.58984375	19189.44140625	18546.451171875	20400.396484375	20468.8359375	16137.2900390625	19993.990234375	17663.81640625	22080.056640625	20079.8359375	21624.796875	21693.4140625	21003.796875	22279.82421875	20091.064453125	18100.9140625	23643.166015625	21523.5703125	22820.88671875	18537.53125	20797.072265625	30399.837890625	21461.193359375	16451.7421875	18007.58984375
1200	1500	12090.2548828125	14705.4541015625	10717.4638671875	16028.7216796875	12697.2314453125	16204.990234375	18658.85546875	12231.5419921875	13100.7138671875	14780.3916015625	-1396.6380615234375	14415.11328125	15627.474609375	2210.76513671875	11786.6806640625	14854.9208984375	10845.1064453125	16592.6171875	13637.205078125	15367.787109375	19564.2265625	11685.3828125	15819.998046875	13386.4912109375	15962.8291015625	5629.17041015625	-2365.60107421875	8104.87353515625	10893.2431640625	14401.71484375	1560.50732421875	6548.08935546875	13548.419921875	16864.048828125	17497.744140625	21102.52734375	14158.6982421875	15215.5517578125	14585.556640625	17550.37109375	14437.6708984375	14111.22265625	15986.994140625	18288.486328125	16860.412109375	16447.365234375	11233.5234375	14250.4833984375	15756.6650390625	19692.833984375	15011.732421875	14558.125	14582.1884765625	16063.427734375	16124.189453125	17302.943359375	15282.654296875	19175.294921875	16548.88671875	16338.1357421875	14450.7724609375	15220.3642578125	25189.8671875	19699.0703125	15770.66796875	15657.599609375	14416.4912109375	16394.83203125	16142.822265625	20024.5859375	13179.869140625	15578.21875	17310.015625	16943.73828125	15339.806640625	17804.6640625	16932.880859375	16276.03125	17752.875	17261.783203125	13775.6259765625	14842.44921875	14747.013671875	19523.185546875	15707.8134765625	17515.275390625	16847.44921875	18204.322265625	16794.474609375	15549.1103515625	16542.552734375	19569.8359375	16437.328125	17080.791015625	14914.5	16198.83203125	27562.013671875	17559.501953125	13488.0830078125	14580.83203125
1500	1800	11971.3740234375	14242.197265625	8891.9541015625	13045.8330078125	9781.7431640625	12601.87890625	17388.568359375	9957.8828125	10528.3251953125	14151.0146484375	-1386.4375	13032.607421875	14942.0341796875	1481.0634765625	11690.734375	13944.0810546875	8935.779296875	13295.013671875	9632.2080078125	12343.8916015625	16520.5078125	10462.564453125	13686.8251953125	14824.751953125	16141.630859375	5754.93212890625	-2110.59326171875	8213.6845703125	8336.6611328125	13151.7080078125	2079.643310546875	6729.0712890625	12573.8056640625	13902.7392578125	13729.5322265625	17887.345703125	12156.86328125	14024.29296875	12364.203125	16259.5458984375	12862.7880859375	12173.7138671875	14356.0419921875	16372.2802734375	15015.0986328125	13803.87890625	8820.6591796875	11904.3125	13844.7412109375	17361.404296875	12358.44921875	12710.279296875	11305.1787109375	12866.802734375	13050.330078125	14536.8466796875	12221.15234375	16197.6064453125	13258.640625	12947.03515625	12121.4404296875	12537.50390625	21341.705078125	17160.166015625	16761.576171875	13812.8896484375	11828.154296875	16864.697265625	12968.0185546875	17355.357421875	12209.9716796875	13461.609375	14327.7822265625	15476.341796875	15050.4033203125	15436.048828125	14026.25390625	14499.7216796875	15306.37890625	15256.94921875	12370.587890625	12412.783203125	13468.1513671875	16683.71875	13971.86328125	14451.7197265625	13914.080078125	15230.5732421875	13771.1787109375	13122.4228515625	12111.2412109375	16519.275390625	12909.9140625	13725.7138671875	12261.8720703125	13415.6923828125	22206.470703125	15238.4892578125	15305.498046875	12520.314453125
1800	2100	11694.5068359375	12596.1416015625	7501.2431640625	10777.3798828125	6781.11376953125	10947.3984375	14058.4716796875	8976.45703125	9624.6416015625	9600.0390625	-148.3506317138672	6559.55712890625	12234.7333984375	-7848.59375	11403.98828125	12329.8701171875	7670.33203125	11037.267578125	8288.84375	10425.82421875	15114.5576171875	9320.8193359375	10886.3251953125	7112.84765625	14414.8701171875	-197.46519470214844	-2032.5250244140625	8220.330078125	6760.57568359375	12101.9560546875	2793.842529296875	6722.52587890625	10094.6064453125	12128.9931640625	11265.6484375	15858.7216796875	10076.421875	12866.3759765625	10730.7421875	14226.2626953125	11947.44140625	10308.6806640625	12484.3173828125	14335.916015625	12627.00390625	11880.599609375	7021.421875	8133.33642578125	11499.80078125	15565.2685546875	10601.5126953125	9968.2919921875	9026.7412109375	12061.73046875	10694.146484375	12217.888671875	12219.68359375	13769.0380859375	10350.6982421875	10395.5439453125	10005.609375	10715.892578125	20604.9375	15278.314453125	15038.0810546875	12306.3828125	10445.6513671875	11334.9404296875	10598.318359375	13954.736328125	10148.181640625	12223.6396484375	12374.4365234375	14055.3046875	12022.8896484375	13405.5556640625	12674.9072265625	13320.8681640625	12806.0458984375	12854.39453125	10065.8359375	9433.2373046875	11899.3427734375	14978.955078125	10890.9501953125	12713.087890625	11426.251953125	13917.115234375	10562.509765625	10555.0859375	11477.294921875	14354.2548828125	10774.396484375	10952.4541015625	10280.828125	11076.1904296875	21186.390625	12005.9541015625	12056.984375	10677.4208984375
2100	2400	11241.453125	11861.3232421875	6447.435546875	9116.763671875	6329.95263671875	9864.3212890625	12682.38671875	7380.53857421875	8643.451171875	8925.908203125	799.5889282226562	4521.48876953125	10958.966796875	-6125.6015625	11009.90234375	11401.3037109375	6660.619140625	8938.3291015625	7261.0556640625	8285.6064453125	13052.154296875	7586.41796875	9748.1748046875	2633.49365234375	12972.6826171875	-2690.61328125	-1852.72216796875	8133.35791015625	6245.70556640625	10527.9404296875	3816.855712890625	6709.6962890625	8846.6064453125	11305.560546875	9459.357421875	12153.955078125	5949.53125	12243.0400390625	9403.1640625	13428.474609375	9593.740234375	9047.4248046875	11136.5146484375	12973.4453125	11283.5986328125	11171.6640625	4848.33984375	6879.296875	10161.15234375	15346.626953125	9133.705078125	9533.880859375	6990.7724609375	11075.31640625	9179.1044921875	10608.9375	9345.8583984375	12104.6533203125	8355.419921875	8939.2666015625	8487.0087890625	9482.134765625	17725.95703125	13737.43359375	12924.8564453125	10559.095703125	8899.33203125	10715.7451171875	8051.12939453125	11743.7177734375	8092.86962890625	12181.8935546875	10440.9912109375	12845.8310546875	9648.8505859375	12273.052734375	11714.162109375	12011.775390625	11272.544921875	11539.6474609375	9840.22265625	7182.294921875	10539.908203125	12807.998046875	9436.748046875	11238.765625	9458.189453125	11767.4931640625	8824.376953125	8891.1875	11382.8857421875	12365.666015625	8374.8515625	8974.546875	8344.296875	10085.8095703125	18369.447265625	9942.8505859375	12211.62890625	9433.0869140625
