time	whole_blood_radioactivity	plasma_radioactivity	metabolite_parent_fraction	AIF
0	0	0	1	0
1.2002000333388898	0.02562224248498476	0.04585653630450552	0.9986511383552008	1.6027976565579918
2.4004000666777796	0.05124448496996952	0.09171307260901104	0.9973022767104015	3.2055953131159836
3.6006001000166696	0.07686672745495429	0.13756960891351658	0.9959534150656023	4.808392969673975
4.800800133355559	0.10248896993993904	0.18342614521802209	0.9946045534208031	6.411190626231967
6.001000166694449	0.1281112124249238	0.2292826815225276	0.9932556917760038	8.01398828278996
7.201200200033339	0.15373345490990858	0.27513921782703316	0.9919068301312046	9.61678593934795
8.401400233372229	0.17935569739489332	0.32099575413153864	0.9905579684864053	11.219583595905943
9.601600266711118	0.20497793987987808	0.36685229043604417	0.9892091068416061	12.822381252463934
10.801800300050008	0.23060018236486285	0.4127088267405497	0.9878602451968069	14.425178909021925
12.002000333388898	0.2562224248498476	0.4585653630450552	0.9865113835520076	16.02797656557992
13.202200366727787	0.2818446673348324	0.5044218993495607	0.9851625219072084	17.630774222137912
14.402400400066679	0.30746690981981717	0.5502784356540663	0.9838136602624092	19.2335718786959
15.60260043340557	0.3330891523048019	0.5961349719585718	0.9824647986176099	20.836369535253894
16.802800466744458	0.35871139478978664	0.6419915082630773	0.9811159369728107	22.439167191811887
18.003000500083346	0.3843336372747714	0.6878480445675828	0.9797670753280115	24.041964848369872
19.203200533422237	0.40995587975975617	0.7337045808720883	0.9784182136832122	25.64476250492787
20.40340056676113	0.43557812224474096	0.7795611171765939	0.977069352038413	27.247560161485865
21.603600600100016	0.4612003647297257	0.8254176534810994	0.9757204903936137	28.85035781804385
22.803800633438907	19.719375189706067	35.292080496812126	0.9743759001440231	63.97952583679518
24.004000666777795	6093.1826550607075	10905.066244514579	0.9743759001440231	10652.857174711726
25.204200700116687	12166.645934931727	21774.84040853238	0.9743759001440231	21241.734823586685
26.404400733455574	18240.109214802724	32644.61457255014	0.9743759001440231	31830.612472461613
27.604600766794466	24313.572494673746	43514.38873656795	0.9743759001440231	42419.49012133658
28.804800800133357	30387.03577454476	54384.16290058573	0.9743759001440231	53008.36777021154
30.005000833472245	36460.49905441576	65253.9370646035	0.9743759001440231	63597.24541908647
31.20520086681114	42533.962334286785	76123.71122862131	0.9743759001440231	74186.12306796142
32.40540090015003	48607.4256141578	86993.48539263911	0.9743759001440231	84775.00071683638
33.605600933488915	54680.8888940288	97863.25955665688	0.9743759001440231	95363.8783657113
34.8058009668278	60754.3521738998	108733.03372067463	0.9743759001440231	105952.75601458622
36.00600100016669	66827.8154537708	119602.8078846924	0.9743759001440231	116541.63366346117
37.206201033505586	72901.27873364184	130472.58204871025	0.9743759001440231	127130.51131233615
38.406401066844474	77144.87925614319	136452.03678270004	0.9741380861041138	132776.70733386997
39.60660110018336	79596.64484700946	137602.2348666364	0.9736674002260154	133582.93950557307
40.80680113352226	82048.41043787573	138701.52105855173	0.9731967143479169	134389.17167727617
42.007001166861144	84500.176028742	139753.20248029035	0.9727260284698185	135195.4038489793
43.20720120020003	86951.94161960826	140760.30589330717	0.97225534259172	136001.6360206824
44.40740123353892	89403.70721047453	141725.60679143327	0.9717846567136216	136807.8681923855
45.607601266877815	91855.47280134082	142651.6549445794	0.9713139708355231	137614.1003640886
46.8078013002167	94307.23839220709	143540.79688842545	0.9708432849574247	138420.3325357917
48.00800133355559	96759.00398307334	144395.1957777693	0.9703725990793262	139226.5647074948
49.208201366894485	99210.76957393963	145216.84895717556	0.9699019132012278	140032.7968791979
50.40840140023337	101662.53516480589	146007.60354937118	0.9694312273231293	140839.029050901
51.60860143357226	104114.30075567216	146769.1703174749	0.9689605414450309	141645.2612226041
52.80880146691115	106566.06634653841	147503.13602002186	0.9684898555669323	142451.4933943072
54.009001500250044	109017.83193740471	148210.97444656765	0.968019169688834	143257.7255660103
55.20920153358893	111458.98889166595	148902.15727583956	0.9675486040971265	144070.38187229628
56.40940156692782	112527.0192731822	150633.56108543233	0.967093607748298	145714.54464176437
57.609601600266714	113595.04965469847	152371.99516242	0.9666386113994695	147358.7074112325
58.8098016336056	114663.08003621473	154117.50241291703	0.966183615050641	149002.8701807006
60.01000166694449	115731.11041773098	155870.12609289438	0.9657286187018126	150647.03295016868
61.210201700283385	116799.14079924722	157629.9098117523	0.9652736223529841	152291.1957196368
62.41040173362228	117867.17118076347	159396.8975359376	0.9648186260041556	153935.35848910492
63.61060176696115	118935.20156227973	161171.13359260536	0.9643636296553271	155579.52125857302
64.81080180030006	120003.23194379598	162952.6626733254	0.9639086333064986	157223.68402804114
66.01100183363894	121071.26232531223	164741.52983783503	0.9634536369576701	158867.84679750924
67.21120186697783	122139.29270682849	166537.780517838	0.9629986406088415	160512.00956697733
68.41140190031672	123207.32308834474	168341.46052085058	0.962543644260013	162156.17233644542
69.6116019336556	124275.35346986099	170152.6160340957	0.9620886479111846	163800.33510591352
70.8118019669945	125343.38385137724	171971.29362844516	0.9616336515623561	165444.4978753816
72.01200200033338	126411.4142328935	173797.5402624117	0.9611786552135276	167088.66064484973
73.21220203367228	127478.90667802517	175625.45968740352	0.9607167386735643	168726.01472949385
74.41240206701117	128494.02528400838	176877.4438467134	0.9595810677868885	169700.47079496147
75.61260210035006	129509.14388999158	178127.35712551032	0.9584453969002125	170674.9268604291
76.81280213368895	130524.26249597479	179375.20465764796	0.9573097260135366	171649.38292589673
78.01300216702784	131539.38110195802	180620.99156002435	0.9561740551268606	172623.83899136435
79.21320220036672	132554.4997079412	181864.72293265178	0.9550383842401847	173598.295056832
80.41340223370561	133569.6183139244	183106.40385872676	0.9539027133535088	174572.7511222996
81.61360226704451	134584.73691990765	184346.0394046989	0.9527670424668329	175547.20718776726
82.8138023003834	135599.85552589086	185583.63462033993	0.951631371580157	176521.6632532349
84.01400233372229	136614.97413187404	186819.19453881233	0.950495700693481	177496.11931870252
85.21420236706118	137630.09273785728	188052.7241767376	0.9493600298068051	178470.57538417017
86.41440240040006	138645.2113438405	189284.228534264	0.9482243589201291	179445.03144963778
87.61460243373895	139660.32994982367	190513.7125951342	0.9470886880334533	180419.4875151054
88.81480246707784	140157.29343901091	191574.8552861166	0.9469222516734662	181437.03365186104
90.01500250041674	140160.8842425618	192483.57326148232	0.9476786930887697	182495.6089389744
91.21520253375563	140164.47504611264	193400.9059389547	0.9484351345040731	183554.1842260877
92.41540256709452	140168.0658496635	194326.9764038178	0.9491915759193766	184612.75951320102
93.6156026004334	140171.65665321436	195261.91009740325	0.94994801733468	185671.33480031436
94.8158026337723	140175.2474567652	196205.8348737343	0.9507044587499835	186729.91008742768
96.01600266711118	140178.83826031606	197158.88105781225	0.951460900165287	187788.485374541
97.21620270045007	140182.42906386693	198121.18150560066	0.9522173415805905	188847.06066165434
98.41640273378897	140186.0198674178	199092.87166576536	0.9529737829958939	189905.63594876765
99.61660276712786	140189.61067096866	200074.08964323055	0.9537302244111974	190964.21123588097
100.81680280046675	140193.2014745195	201064.97626461418	0.9544866658265008	192022.78652299428
102.01700283380563	140196.79227807035	202065.67514560674	0.9552431072418042	193081.3618101076
103.21720286714452	140209.11332406316	203047.85238570435	0.9559995486571077	194114.94683192592
104.41740290048341	140821.7908096107	202085.4005128011	0.9567559900724111	193430.01523799013
105.6176029338223	141434.4682951583	201140.25083694278	0.9575124314877146	192745.08364405434
106.8178029671612	142047.14578070588	200211.9409467815	0.958268872903018	192060.15205011857
108.01800300050009	142659.82326625343	199300.02476309304	0.9590253143183214	191375.2204561828
109.21820303383898	143272.500751801	198404.07182403532	0.9597817557336249	190690.288862247
110.41840306717786	143885.17823734856	197523.66660761644	0.9605381971489283	190005.35726831123
111.61860310051675	144497.85572289614	196658.40788913137	0.9612946385642318	189320.42567437547
112.81880313385564	145110.5332084437	195807.90813147993	0.9620510799795352	188635.49408043968
114.01900316719453	145723.21069399125	194971.7929064195	0.9628075213948386	187950.5624865039
115.21920320053343	146335.88817953883	194149.70034493625	0.9635639628101421	187265.63089256812
116.41940323387232	146948.56566508638	193341.2806150408	0.9643204042254455	186580.69929863233
117.6196032672112	147561.24315063396	192546.19542540412	0.965076845640749	185895.76770469657
118.81980330055009	148084.63197564936	191693.73248844047	0.9658386195284969	185137.7107256762
120.02000333388898	143285.87548955178	186620.71818604585	0.9669182410919516	180020.93761146342
121.22020336722785	138487.11900345422	181485.01915775082	0.9679978626554062	174904.16449725063
122.42040340056677	133688.36251735664	176285.46633457145	0.9690774842188608	169787.39138303782
123.62060343390564	128889.60603125906	171020.86139484972	0.9701571057823154	164670.61826882506
124.82080346724456	124090.84954516143	165689.9758435364	0.97123672734577	159553.84515461218
126.02100350058343	119292.09305906386	160291.55005647842	0.9723163489092247	154437.07204039942
127.2212035339223	114493.33657296629	154824.29228814878	0.9733959704726793	149320.2989261866
128.42140356726122	109694.58008686863	149286.877641178	0.974475592036134	144203.52581197376
129.6216036006001	104895.82360077107	143677.94699595997	0.9755552135995886	139086.75269776097
130.821803633939	100097.06711467348	137996.1058985148	0.9766348351630433	133969.9795835482
132.0220036672779	95298.3106285759	132239.92340469896	0.9777144567264978	128853.20646933539
133.22220370061677	90540.02697876196	126445.98812434054	0.9787343956912067	123760.12595648534
134.42240373395566	87928.99137285873	122638.54382705587	0.9765879308359691	119924.03399701425
135.62260376729455	85317.95576695549	118841.06621885627	0.9744414659807316	116087.94203754317
136.82280380063344	82706.92016105227	115053.51621641984	0.9722950011254939	112251.85007807208
138.02300383397233	80095.88455514904	111275.85494050602	0.9701485362702563	108415.75811860099
139.2232038673112	77484.84894924582	107508.04371462537	0.9680020714150187	104579.66615912992
140.4234039006501	74873.81334334258	103750.04406371953	0.9658556065597811	100743.57419965882
141.623603933989	72262.77773743935	100001.81771285176	0.9637091417045435	96907.48224018773
142.82380396732788	69651.74213153613	96263.3265859073	0.9615626768493059	93071.39028071665
144.02400400066676	67040.70652563288	92534.53280430422	0.9594162119940682	89235.29832124556
145.22420403400568	64429.6709197296	88815.39868571395	0.9572697471388306	85399.20636177438
146.42440406734457	61818.63531382638	85105.88674279225	0.955123282283593	81563.11440230328
147.62460410068346	59207.59970792314	81405.95968191912	0.9529768174283554	77727.02244283221
148.82480413402234	56621.064379683994	77752.58074345413	0.9509068855335016	73934.3668854576
150.02500416736123	55195.52608010751	75855.65616699208	0.9524636284387701	72200.03631775182
151.22520420070012	53769.98778053104	73955.6939771662	0.9540203713440386	70465.70575004602
152.425404234039	52344.44948095456	72052.686871771	0.955577114249307	68731.37518234024
153.6256042673779	50918.91118137808	70146.6275251769	0.9571338571545756	66997.04461463446
154.82580430071678	49493.372881801595	68237.50858823623	0.9586906000598441	65262.714046928675
156.02600433405567	48067.834582225114	66325.32268818887	0.9602473429651126	63528.383479222895
157.22620436739456	46642.29628264864	64410.06242856717	0.961804085870381	61794.052911517116
158.42640440073345	45216.75798307216	62491.72038910071	0.9633608287756495	60059.722343811336
159.62660443407233	43791.219683495685	60570.28912562044	0.9649175716809181	58325.391776105556
160.82680446741122	42365.681383919204	58645.76116996235	0.9664743145861866	56591.06120839976
162.0270045007501	40940.14308434272	56718.12902987081	0.968031057491455	54856.73064069399
163.22720453408903	39537.1947066442	54814.73174415454	0.9695751749789009	53147.36713659137
164.4274045674279	39108.2706075664	54090.70153589871	0.9705749141566954	52514.52466902615
165.6276046007668	38679.346508488605	53370.11809047251	0.9715746533344899	51881.682201460935
166.8278046341057	38250.422409410814	52652.956853728014	0.9725743925122844	51248.83973389571
168.02800466744458	37821.49831033302	51939.19350419081	0.9735741316900789	50615.99726633049
169.22820470078346	37392.574211255225	51228.803950310576	0.9745738708678734	49983.15479876527
170.42840473412235	36963.650112177434	50521.76432775049	0.975573610045668	49350.31233120005
171.62860476746124	36534.72601309964	49818.05099671481	0.9765733492234625	48717.469863634826
172.82880480080013	36105.801914021846	49117.640539314285	0.977573088401257	48084.627396069605
174.02900483413902	35676.87781494405	48420.50975696836	0.9785728275790515	47451.784928504385
175.2292048674779	35247.95371586625	47726.63566784394	0.979572566756846	46818.94246093917
176.4294049008168	34819.02961678846	47035.99550432996	0.9805723059346405	46186.099993373944
177.62960493415568	34390.10551771067	46348.56671054699	0.9815720451124351	45553.25752580872
178.82980496749457	33961.18141863288	45664.326939891806	0.9825717842902296	44920.4150582435
180.03000500083348	33532.25731955507	44983.254052615775	0.9835715234680241	44287.572590678275
181.23020503417237	33103.333220477274	44305.32611343701	0.9845712626458186	43654.730123113055
182.43040506751126	32674.409121399476	43630.52138918533	0.9855710018236131	43021.88765554783
183.63060510085015	32245.48502232169	42958.81834647986	0.9865707410014077	42389.04518798261
184.83080513418903	31952.89914038074	42516.71258791346	0.9869519758866822	41967.20648123107
186.03100516752792	31783.378657228448	42279.896224895085	0.9867749192011122	41735.82986585614
187.2312052008668	31613.858174076155	42043.205836857174	0.9865978625155422	41504.45325048121
188.4314052342057	31444.337690923858	41806.641323307456	0.986420805829972	41273.07663510627
189.6316052675446	31274.817207771568	41570.20258386052	0.986243749144402	41041.70001973134
190.83180530088347	31105.296724619275	41333.88951823766	0.986066692458832	40810.32340435641
192.03200533422236	30935.77624146698	41097.70202626676	0.985889635773262	40578.94678898148
193.23220536756125	30766.255758314688	40861.640007882124	0.9857125790876919	40347.57017360654
194.43240540090014	30596.7352751624	40625.70336312436	0.9855355224021219	40116.19355823161
195.63260543423903	30427.214792010105	40389.8919921402	0.985358465716552	39884.816942856676
196.83280546757794	30257.69430885781	40154.20579518241	0.985181409030982	39653.44032748173
198.03300550091683	30088.173825705515	39918.64467260963	0.9850043523454118	39422.0637121068
199.23320553425572	29918.65334255322	39683.208524886206	0.9848272956598418	39190.68709673187
200.4334055675946	29749.132859400932	39447.897252582065	0.9846502389742718	38959.31048135694
201.6336056009335	29579.612376248635	39212.71075637261	0.9844731822887017	38727.933865982006
202.83380563427238	29410.09189309634	38977.64893703853	0.9842961256031317	38496.55725060707
204.03400566761127	29240.57140994405	38742.711695465696	0.9841190689175617	38265.18063523214
205.23420570095016	29071.050926791755	38507.89893264498	0.9839420122319917	38033.8040198572
206.43440573428904	28901.530443639465	38273.21054967221	0.9837649555464216	37802.42740448227
207.63460576762793	28732.009960487172	38038.64644774787	0.9835878988608516	37571.05078910733
208.83480580096682	28562.48947733488	37804.20652817715	0.9834108421752816	37339.674173732405
210.0350058343057	28392.968994182585	37569.89069236963	0.9832337854897116	37108.29755835747
211.2352058676446	28223.448511030296	37335.698841839294	0.9830567288041415	36876.920942982535
212.43540590098348	28053.928027878002	37101.63087820429	0.9828796721185715	36645.544327607604
213.6356059343224	27884.407544725706	36867.686703186824	0.9827026154330015	36414.16771223266
214.8358059676613	27714.887061573412	36633.866218613046	0.9825255587474315	36182.791096857734
216.03600600100017	27545.366578421115	36400.16932641286	0.9823485020618614	35951.4144814828
217.23620603433906	27375.846095268826	36166.59592861986	0.9821714453762914	35720.037866107865
218.43640606767795	27206.325612116532	35933.1459273711	0.9819943886907214	35488.661250732934
219.63660610101684	27036.80512896424	35699.819224907056	0.9818173320051514	35257.284635357995
220.83680613435573	26867.28464581195	35466.615723571405	0.9816402753195813	35025.908019983064
222.0370061676946	26697.764162659656	35233.535325810946	0.9814632186340113	34794.531404608126
223.2372062010335	26528.243679507363	35000.577934175446	0.9812861619484413	34563.154789233195
224.4374062343724	26358.72319635507	34767.743451317496	0.9811091052628712	34331.77817385827
225.63760626771128	26189.202713202776	34535.03177999236	0.9809320485773012	34100.40155848333
226.83780630105016	26019.682230050486	34302.442823057914	0.9807549918917312	33869.0249431084
228.03800633438905	25850.16174689819	34069.9764834744	0.9805779352061612	33637.64832773346
229.23820636772794	25680.641263745896	33837.63266430438	0.9804008785205911	33406.27171235853
230.43840640106686	25511.1207805936	33605.41126871256	0.9802238218350211	33174.89509698359
231.63860643440574	25341.60029744131	33373.31219996568	0.9800467651494511	32943.51848160866
232.83880646774463	25172.079814289016	33141.33536143236	0.9798697084638811	32712.141866233727
234.03900650108352	25002.559331136723	32909.480656582935	0.979692651778311	32480.765250858796
235.2392065344224	24833.03884798443	32677.747988989417	0.979515595092741	32249.38863548386
236.4394065677613	24663.518364832136	32446.137262325265	0.979338538407171	32018.012020108927
237.63960660110018	24493.997881679847	32214.648380365295	0.979161481721601	31786.635404733992
238.83980663443907	24324.477398527553	31983.28124698554	0.9789844250360309	31555.258789359057
240.04000666777796	24154.95691537526	31752.035766163106	0.9788073683504609	31323.882173984126
241.24020670111685	23985.436432222967	31520.91184197608	0.9786303116648909	31092.505558609195
242.4404067344557	23815.91594907067	31289.909378603334	0.9784532549793208	30861.128943234264
243.64060676779465	23646.39546591838	31059.02828032445	0.9782761982937508	30629.75232785933
244.84080680113354	23476.874982766087	30828.26845151954	0.9780991416081808	30398.375712484394
246.0410068344724	23307.354499613793	30597.629796669164	0.9779220849226108	30166.99909710946
247.2412068678113	23137.834016461504	30367.11222035416	0.9777450282370407	29935.62248173453
248.44140690115023	22968.313533309207	30136.715627255504	0.9775679715514707	29704.24586635959
249.64160693448912	22798.793050156914	29906.439922154233	0.9773909148659007	29472.86925098466
250.84180696782798	22629.27256700462	29676.285009931267	0.9772138581803307	29241.492635609724
252.04200700116687	22459.75208385233	29446.25079556729	0.9770368014947606	29010.11602023479
253.24220703450575	22290.231600700034	29216.3371841426	0.9768597448091906	28778.739404859854
254.4424070678446	22120.711117547744	28986.544080837044	0.9766826881236206	28547.362789484923
255.6426071011835	21951.190634395447	28756.87139092979	0.9765056314380506	28315.986174109992
256.84280713452245	21781.670151243154	28527.31901979929	0.9763285747524805	28084.609558735054
258.04300716786133	21612.149668090857	28297.88687292308	0.9761515180669105	27853.23294336012
259.2432072012002	21442.629184938567	28068.57485587771	0.9759744613813405	27621.856327985184
260.4434072345391	21273.108701786274	27839.382874338546	0.9757974046957705	27390.47971261025
261.643607267878	21103.58821863398	27610.31083407971	0.9756203480102004	27159.103097235322
262.8438073012169	20934.06773548169	27381.35864097391	0.9754432913246304	26927.726481860387
264.0440073345558	20764.547252329394	27152.526200992303	0.9752662346390604	26696.34986648545
265.24420736789466	20595.026769177104	26923.813420204406	0.9750891779534903	26464.973251110518
266.44440740123355	20425.50628602481	26695.220204777943	0.9749121212679203	26233.596635735586
267.64460743457244	20255.985802872518	26466.746460978702	0.9747350645823503	26002.22002036065
268.8448074679113	20086.465319720224	26238.392095170446	0.9745580078967803	25770.84340498572
270.0450075012502	19916.944836567927	26010.157013814733	0.9743809512112102	25539.466789610786
271.2452075345891	19747.424353415638	25782.041123470863	0.9742038945256402	25308.09017423585
272.445407567928	19577.903870263344	25554.044330795656	0.9740268378400702	25076.71355886092
273.6456076012669	19408.38338711105	25326.166542543404	0.9738497811545002	24845.336943485985
274.84580763460576	19238.86290395876	25098.407665565708	0.97367272446893	24613.96032811105
276.04600766794465	19069.342420806468	24870.767606811354	0.97349566778336	24382.583712736123
277.24620770128354	18899.821937654175	24643.2462733262	0.97331861109779	24151.207097361188
278.4464077346224	18730.301454501885	24415.843572253016	0.9731415544122201	23919.830481986253
279.6466077679613	18560.780971349588	24188.559410831396	0.97296449772665	23688.45386661132
280.8468078013002	18391.2604881973	23961.393696397634	0.97278744104108	23457.077251236387
282.0470078346391	18221.740005045005	23734.346336384544	0.97261038435551	23225.700635861453
283.247207867978	18052.219521892708	23507.417238321385	0.97243332766994	22994.32402048652
284.44740790131686	17882.69903874042	23280.606309833736	0.9722562709843698	22762.94740511159
285.64760793465575	17713.178555588125	23053.91345864334	0.9720792142987998	22531.570789736656
286.84780796799464	17543.658072435832	22827.338592568	0.9719021576132298	22300.19417436172
288.0480080013335	17374.137589283542	22600.881619521457	0.9717251009276597	22068.81755898679
289.2482080346724	17204.61710613125	22374.542447513228	0.9715480442420897	21837.440943611855
290.44840806801136	17035.09662297895	22148.32098464853	0.9713709875565197	21606.064328236913
291.64860810135025	16865.57613982665	21922.217139128155	0.9711939308709497	21374.687712861978
292.84880813468914	16696.05565667436	21696.23081924831	0.9710168741853796	21143.311097487043
294.049008168028	16526.53517352207	21470.361933400494	0.9708398174998096	20911.93448211211
295.2492082013669	16357.014690369773	21244.61039007141	0.9706627608142396	20680.557866737177
296.4494082347058	16187.494207217484	21018.976097842824	0.9704857041286696	20449.181251362243
297.6496082680447	16017.97372406519	20793.45896539142	0.9703086474430995	20217.80463598731
298.8498083013836	15848.453240912895	20568.05890148871	0.9701315907575295	19986.42802061238
300.05000833472246	15678.932757760605	20342.775815000892	0.9699545340719595	19755.051405237446
301.25020836806135	15509.412274608312	20117.609614888737	0.9697774773863895	19523.67478986251
302.45040840140024	15339.891791456019	19892.560210207463	0.9696004207008194	19292.298174487576
303.6506084347391	15256.569407026152	19780.78464379536	0.969198319212597	19173.034959413584
304.850808468078	15246.061557950585	19764.626753459317	0.968606114543656	19148.477837291728
306.0510085014169	15235.553708875017	19748.47300526536	0.9680139098747148	19123.920715169872
307.2512085347558	15225.045859799447	19732.32339762091	0.9674217052057738	19099.36359304802
308.4514085680947	15214.53801072388	19716.1779289342	0.9668295005368327	19074.806470926163
309.65160860143357	15204.030161648312	19700.03659761429	0.9662372958678915	19050.249348804304
310.85180863477245	15193.522312572743	19683.89940207104	0.9656450911989505	19025.692226682448
312.05200866811134	15183.014463497175	19667.76634071515	0.9650528865300093	19001.13510456059
313.25220870145023	15172.506614421607	19651.637411958098	0.9644606818610683	18976.577982438735
314.4524087347891	15161.99876534604	19635.512614212206	0.9638684771921272	18952.020860316883
315.652608768128	15151.49091627047	19619.391945890595	0.963276272523186	18927.463738195027
316.8528088014669	15140.983067194902	19603.275405407207	0.962684067854245	18902.90661607317
318.0530088348058	15130.475218119334	19587.162991176785	0.9620918631853039	18878.349493951315
319.25320886814467	15119.967369043767	19571.0547016149	0.9614996585163628	18853.79237182946
320.45340890148356	15109.459519968197	19554.950535137905	0.9609074538474217	18829.235249707603
321.65360893482244	15098.95167089263	19538.850490163004	0.9603152491784807	18804.678127585747
322.85380896816133	15088.443821817062	19522.75456510818	0.9597230445095395	18780.12100546389
324.0540090015002	15077.935972741492	19506.662758392227	0.9591308398405984	18755.563883342034
325.25420903483916	15067.428123665924	19490.575068434773	0.9585386351716573	18731.00676122018
326.45440906817805	15056.920274590357	19474.491493656227	0.9579464305027162	18706.449639098322
327.65460910151694	15046.412425514787	19458.412032477816	0.9573542258337752	18681.892516976466
328.8548091348558	15035.90457643922	19442.336683321584	0.956762021164834	18657.33539485461
330.0550091681947	15025.396727363652	19426.265444610366	0.9561698164958929	18632.778272732754
331.2552092015336	15014.888878288086	19410.198314767815	0.9555776118269518	18608.221150610898
332.4554092348725	15004.381029212516	19394.13529221838	0.9549854071580107	18583.664028489042
333.6556092682114	14993.873180136949	19378.07637538732	0.9543932024890697	18559.106906367186
334.85580930155027	14983.36533106138	19362.021562700716	0.9538009978201285	18534.549784245333
336.05600933488915	14972.857481985813	19345.97085258542	0.9532087931511875	18509.992662123477
337.25620936822804	14962.349632910244	19329.924243469104	0.9526165884822464	18485.43554000162
338.45640940156693	14951.841783834676	19313.88173378026	0.9520243838133052	18460.87841787976
339.6566094349058	14941.333934759108	19297.843321948152	0.9514321791443642	18436.321295757905
340.8568094682447	14930.826085683539	19281.809006402873	0.9508399744754231	18411.764173636053
342.0570095015836	14920.31823660797	19265.778785575305	0.950247769806482	18387.207051514197
343.2572095349225	14909.810387532403	19249.752657897126	0.9496555651375409	18362.64992939234
344.45740956826137	14899.302538456835	19233.730621800827	0.9490633604685998	18338.092807270485
345.65760960160026	14888.794689381266	19217.712675719693	0.9484711557996587	18313.53568514863
346.85780963493914	14878.286840305698	19201.698818087807	0.9478789511307176	18288.978563026772
348.05800966827803	14867.77899123013	19185.689047340064	0.9472867464617765	18264.42144090492
349.2582097016169	14857.271142154563	19169.683361912135	0.9466945417928354	18239.864318783064
350.4584097349558	14846.763293078993	19153.681760240506	0.9461023371238944	18215.307196661204
351.6586097682947	14836.255444003426	19137.68424076246	0.9455101324549532	18190.750074539348
352.8588098016336	14825.747594927858	19121.690801916076	0.9449179277860121	18166.192952417492
354.05900983497247	14815.239745852288	19105.70144214022	0.9443257231170711	18141.635830295636
355.25920986831136	14804.73189677672	19089.71615987457	0.9437335184481299	18117.078708173784
356.45940990165025	14794.224047701153	19073.734953559586	0.9431413137791889	18092.521586051927
357.65960993498913	14783.716198625585	19057.757821636533	0.9425491091102478	18067.96446393007
358.8598099683281	14773.208349550016	19041.784762547464	0.9419569044413066	18043.40734180821
360.06001000166697	14762.700500474448	19025.815774735227	0.9413646997723656	18018.850219686356
361.26021003500585	14752.19265139888	19009.850856643472	0.9407724951034244	17994.2930975645
362.46041006834474	14741.68480232331	18993.890006716625	0.9401802904344834	17969.735975442647
363.66061010168363	14731.176953247743	18977.933223399934	0.9395880857655423	17945.17885332079
364.8608101350225	14720.669104172175	18961.9805051394	0.9389958810966011	17920.621731198935
366.0610101683614	14710.161255096607	18946.031850381845	0.9384036764276601	17896.06460907708
367.2612102017003	14699.653406021038	18930.087257574873	0.9378114717587189	17871.507486955223
368.4614102350392	14689.14555694547	18914.146725166884	0.9372192670897779	17846.95036483337
369.66161026837807	14678.637707869902	18898.210251607055	0.9366270624208368	17822.39324271151
370.86181030171696	14668.129858794335	18882.277835345358	0.9360348577518957	17797.836120589654
372.06201033505585	14657.622009718767	18866.349474832572	0.9354426530829546	17773.2789984678
373.26221036839473	14647.1141606432	18850.425168520236	0.9348504484140135	17748.721876345942
374.4624104017336	14636.606311567632	18834.5049148607	0.9342582437450724	17724.164754224086
375.6626104350725	14626.098462492062	18818.58871230708	0.9336660390761313	17699.607632102234
376.8628104684114	14615.590613416494	18802.676559313302	0.9330738344071903	17675.050509980378
378.0630105017503	14605.082764340927	18786.76845433407	0.9324816297382491	17650.49338785852
379.2632105350892	14594.574915265359	18770.86439582486	0.931889425069308	17625.936265736662
380.46341056842806	14584.06706618979	18754.964382241957	0.931297220400367	17601.379143614806
381.66361060176695	14573.559217114222	18739.06841204242	0.9307050157314258	17576.82202149295
382.86381063510584	14563.051368038654	18723.176483684085	0.9301128110624848	17552.264899371097
384.0640106684447	14552.543518963084	18707.28859562559	0.9295206063935436	17527.70777724924
385.2642107017836	14542.035669887517	18691.404746326334	0.9289284017246026	17503.150655127385
