frame_start	frame_end	Left-Cerebral-White-Matter	Left-Cerebellum-White-Matter	Left-Cerebellum-Cortex	Left-Thalamus	Left-Caudate	Left-Putamen	Left-Pallidum	Brain-Stem	Left-Hippocampus	Left-Amygdala	CSF	Left-Accumbens-area	Left-VentralDC	Left-choroid-plexus	Right-Cerebral-White-Matter	Right-Cerebellum-White-Matter	Right-Cerebellum-Cortex	Right-Thalamus	Right-Caudate	Right-Putamen	Right-Pallidum	Right-Hippocampus	Right-Amygdala	Right-Accumbens-area	Right-VentralDC	Right-choroid-plexus	AirCavity	Skull	Vermis	Pons	CSF-ExtraCerebral	Head-ExtraCerebral	ctx-lh-bankssts	ctx-lh-caudalanteriorcingulate	ctx-lh-caudalmiddlefrontal	ctx-lh-cuneus	ctx-lh-entorhinal	ctx-lh-fusiform	ctx-lh-inferiorparietal	ctx-lh-inferiortemporal	ctx-lh-isthmuscingulate	ctx-lh-lateraloccipital	ctx-lh-lateralorbitofrontal	ctx-lh-lingual	ctx-lh-medialorbitofrontal	ctx-lh-middletemporal	ctx-lh-parahippocampal	ctx-lh-paracentral	ctx-lh-parsopercularis	ctx-lh-parsorbitalis	ctx-lh-parstriangularis	ctx-lh-pericalcarine	ctx-lh-postcentral	ctx-lh-posteriorcingulate	ctx-lh-precentral	ctx-lh-precuneus	ctx-lh-rostralanteriorcingulate	ctx-lh-rostralmiddlefrontal	ctx-lh-superiorfrontal	ctx-lh-superiorparietal	ctx-lh-superiortemporal	ctx-lh-supramarginal	ctx-lh-frontalpole	ctx-lh-temporalpole	ctx-lh-transversetemporal	ctx-lh-insula	ctx-rh-bankssts	ctx-rh-caudalanteriorcingulate	ctx-rh-caudalmiddlefrontal	ctx-rh-cuneus	ctx-rh-entorhinal	ctx-rh-fusiform	ctx-rh-inferiorparietal	ctx-rh-inferiortemporal	ctx-rh-isthmuscingulate	ctx-rh-lateraloccipital	ctx-rh-lateralorbitofrontal	ctx-rh-lingual	ctx-rh-medialorbitofrontal	ctx-rh-middletemporal	ctx-rh-parahippocampal	ctx-rh-paracentral	ctx-rh-parsopercularis	ctx-rh-parsorbitalis	ctx-rh-parstriangularis	ctx-rh-pericalcarine	ctx-rh-postcentral	ctx-rh-posteriorcingulate	ctx-rh-precentral	ctx-rh-precuneus	ctx-rh-rostralanteriorcingulate	ctx-rh-rostralmiddlefrontal	ctx-rh-superiorfrontal	ctx-rh-superiorparietal	ctx-rh-superiortemporal	ctx-rh-supramarginal	ctx-rh-frontalpole	ctx-rh-temporalpole	ctx-rh-transversetemporal	ctx-rh-insula
0	30	132.2249298095703	50.92034149169922	53.80906677246094	243.1342315673828	116.95466613769531	213.97865295410156	62.15781784057617	56.36233139038086	172.7833251953125	138.39842224121094	132.94192504882812	231.8126983642578	193.45741271972656	244.21900939941406	138.7360076904297	106.21675872802734	75.35940551757812	153.62608337402344	125.75204467773438	181.21498107910156	176.73052978515625	122.90279388427734	212.31216430664062	409.16748046875	143.39280700683594	97.63016510009766	11.731697082519531	57.044166564941406	56.814876556396484	75.21089172363281	173.3281707763672	22.742286682128906	156.55767822265625	209.22718811035156	165.3704833984375	169.44358825683594	87.2387924194336	126.57955932617188	162.57833862304688	82.14265441894531	199.61154174804688	122.03256225585938	206.53916931152344	154.13241577148438	170.92457580566406	129.70863342285156	105.19801330566406	238.77700805664062	237.50628662109375	130.0889892578125	167.93939208984375	188.60220336914062	200.11216735839844	148.05731201171875	187.3600311279297	209.5862274169922	196.68466186523438	181.3389434814453	228.2267303466797	162.70645141601562	127.91526794433594	237.5526885986328	202.04603576660156	57.13631820678711	127.06796264648438	347.6976013183594	169.33595275878906	129.69142150878906	225.7366943359375	169.72923278808594	181.36752319335938	129.73342895507812	166.30630493164062	112.62477111816406	156.8331298828125	116.19251251220703	196.27342224121094	183.81947326660156	149.578857421875	101.35345458984375	57.20976638793945	251.7178497314453	264.29376220703125	225.29669189453125	236.09693908691406	209.50804138183594	207.74607849121094	196.3146209716797	199.78128051757812	177.79824829101562	151.953369140625	156.08131408691406	206.37356567382812	173.9019317626953	146.50210571289062	206.17578125	80.68888854980469	51.59605026245117	253.00892639160156	167.1331787109375
30	60	3674.352294921875	4022.2705078125	4298.3603515625	4688.4853515625	4266.6875	5376.49365234375	3275.3857421875	3634.573974609375	4191.1728515625	3341.0576171875	3906.116943359375	4744.41162109375	4854.26318359375	4944.921875	3796.809814453125	3811.13037109375	4286.7958984375	4819.44482421875	4747.583984375	5261.69482421875	3886.120361328125	3804.0439453125	3908.86962890625	4932.16064453125	4601.46923828125	3735.713623046875	903.4063720703125	1682.45849609375	4360.55712890625	4348.6953125	4597.38818359375	899.2684936523438	4810.87646484375	4066.5830078125	5563.7734375	6018.81640625	2952.984619140625	4331.12255859375	5068.56396484375	4500.1552734375	5739.02685546875	4309.5068359375	4939.81640625	5782.35791015625	5573.6259765625	4572.3251953125	4087.466064453125	5946.80859375	5588.7939453125	5172.966796875	5590.91162109375	6093.29541015625	5329.7998046875	5500.04345703125	4913.8671875	6173.6796875	6836.65478515625	4970.18505859375	5665.93408203125	5322.515625	4422.6279296875	5575.3310546875	5037.96142578125	3295.531005859375	5136.65234375	5634.197265625	4177.001953125	4235.12158203125	5066.12158203125	6655.94091796875	3407.925537109375	4619.22021484375	4688.49267578125	3791.164794921875	5650.2626953125	4769.9794921875	4352.4482421875	5856.83837890625	5149.359375	4030.9345703125	4287.99365234375	5434.267578125	5458.0146484375	3419.417236328125	5397.7822265625	6075.03466796875	5360.4033203125	4546.55078125	4810.59521484375	6287.31494140625	4637.96630859375	4908.4169921875	4878.9775390625	5093.837890625	4583.6162109375	5165.56298828125	4757.353515625	3232.07666015625	3499.265625	4625.27587890625
60	90	12687.8740234375	13737.359375	15351.1943359375	16483.451171875	14807.380859375	18981.662109375	13436.9951171875	12594.3017578125	14197.1279296875	12509.0712890625	13122.1796875	15208.6142578125	14716.6875	15102.71484375	13029.3837890625	13308.19140625	14985.2607421875	16833.650390625	16007.3427734375	18258.8125	11942.4736328125	13804.849609375	12827.4951171875	17174.13671875	14175.8603515625	14875.1533203125	2840.347900390625	5398.818359375	16698.41796875	14027.4228515625	14384.6796875	3147.02978515625	16370.814453125	13555.4716796875	18155.0234375	20623.013671875	9712.2236328125	15594.0654296875	17386.482421875	15242.5859375	18283.873046875	15108.548828125	15669.0458984375	18489.8515625	17324.255859375	15854.5654296875	14294.453125	18902.794921875	18595.033203125	16637.216796875	17882.384765625	21012.8203125	17976.6875	17754.65234375	17401.470703125	20572.353515625	18857.4140625	17361.4453125	18019.5625	17988.056640625	15126.0283203125	18594.740234375	17101.310546875	11063.7705078125	19503.6171875	16765.1015625	15797.349609375	13641.3212890625	17530.607421875	22402.767578125	9655.271484375	15174.279296875	16840.2421875	13339.2265625	17944.19140625	15933.35546875	14745.1533203125	19758.658203125	16136.822265625	14884.533203125	13800.978515625	17854.953125	18190.24609375	14282.693359375	18559.0234375	22512.470703125	18440.6640625	16243.21875	16832.7421875	20214.517578125	14163.90234375	17317.421875	16842.23828125	17480.06640625	16066.486328125	17922.732421875	16907.677734375	12728.24609375	13116.60546875	15432.302734375
90	120	23477.787109375	24421.296875	28572.732421875	30945.306640625	28155.634765625	35575.96484375	23139.37890625	22418.390625	26515.537109375	22934.958984375	23053.720703125	28357.724609375	25546.19921875	26297.001953125	23898.5546875	24885.494140625	28314.25390625	30241.490234375	30222.025390625	35428.484375	24844.009765625	25284.521484375	23543.033203125	30819.69921875	25277.330078125	27213.640625	5007.82568359375	9027.6728515625	29509.4609375	25567.84375	25521.359375	5532.15625	30778.294921875	23450.654296875	34219.7265625	36843.359375	16276.0107421875	27966.822265625	32631.302734375	27472.1953125	34404.421875	28008.255859375	27956.63671875	33507.6484375	30167.685546875	28220.775390625	25067.576171875	35737.98828125	33152.9453125	29178.025390625	34017.01953125	38916.55078125	33283.86328125	33360.6328125	32182.642578125	36846.4296875	31950.71875	31940.396484375	32866.4453125	33286.80078125	28156.08984375	34069.4296875	30619.83984375	20896.61328125	32643.60546875	29874.412109375	29437.162109375	27263.908203125	33421.28515625	39848.03125	16515.23828125	28904.17578125	31660.490234375	25361.185546875	34746.15234375	29516.25390625	27360.552734375	34919.8359375	28392.685546875	27718.95703125	27025.12109375	33663.67578125	32358.634765625	24756.921875	33188.1640625	41521.80859375	33728.6796875	31781.77734375	31616.75390625	38107.05859375	27544.435546875	32567.806640625	32133.462890625	33349.640625	29315.533203125	33155.328125	31707.068359375	20983.939453125	24275.61328125	27702.662109375
120	150	33928.2421875	33630.8984375	42435.00390625	44513.9921875	40337.03515625	52411.87109375	38830.29296875	32448.75	39395.29296875	33537.71484375	29522.189453125	42072.15234375	36329.54296875	36977.515625	34055.953125	36065.97265625	43143.83984375	45212.1953125	43478.2578125	52707.625	37738.76953125	36483.421875	33632.62890625	43991.765625	35825.2578125	33914.71484375	7795.60107421875	12242.9111328125	42100.4609375	36930.71484375	33158.78515625	8630.0068359375	45629.48828125	45550.92578125	48988.03515625	52444.22265625	25251.5859375	43220.265625	45948.984375	43133.4453125	47614.94140625	42911.8828125	43731.89453125	49252.87109375	44150.25390625	43490.203125	41332.24609375	48532.015625	50112.796875	49384.99609375	49006.93359375	59395.97265625	47251.3671875	53183.34375	47335.21875	53725.55859375	45839.859375	48714.93359375	48308.71484375	48008.1640625	40565.046875	49219.3671875	45856.8984375	31237.966796875	52939.515625	43402.7734375	45386.9296875	44999.21875	48783.16796875	55572.74609375	26918.95703125	43284.0234375	43665.921875	41227.48828125	49446.00390625	43189.69140625	44024.625	51299.3828125	41509.72265625	43315.5703125	38939.6640625	48732.88671875	48200.0078125	46077.66796875	48775.36328125	60791.9609375	47670.26953125	49774.48046875	47347.91015625	52847.796875	40315.1484375	48906.44140625	46723.34765625	46738.859375	42539.5390625	48519.3984375	48348.00390625	33374.328125	45642.1171875	42310.578125
150	180	38404.734375	39182.8203125	48402.57421875	50130.08203125	45041.515625	59808.87109375	45671.79296875	36374.40625	42434.29296875	35190.28515625	32495.16796875	47377.26171875	40941.07421875	37403.24609375	38626.37890625	40574.1171875	48635.375	50524.34375	49521.17578125	58674.03515625	42222.375	39857.03515625	37577.11328125	53301.01953125	40923.609375	36256.3125	8488.6572265625	13291.9296875	49236.6640625	42294.2734375	35575.9453125	9707.880859375	50602.8046875	49888.28125	56667.0859375	58553.25390625	30872.97265625	48088.64453125	52007.90625	48309.9453125	53577.078125	47444.85546875	49785.59375	55918.3515625	47672.74609375	49345.421875	43773.7734375	54609.703125	55540.171875	55794.5546875	55178.9140625	65361.90234375	52506.7890625	57767.9921875	53107.2890625	60478.4296875	48481.91796875	55641.5234375	54547.2265625	53508.62890625	46208.953125	53637.5078125	51369.32421875	36286.58984375	57786.2109375	47829.5703125	53579.76171875	52299.03515625	56881.328125	60714.7734375	30386.646484375	48962.5859375	49888.78515625	46819.19921875	55487.30078125	47598.43359375	49470.484375	55128.2265625	46546.75390625	48974.91796875	44991.56640625	54011.5625	54193.87890625	53318.02734375	54464.28125	66977.7890625	53832.203125	57442.09375	52717.8515625	59179.4453125	44404.19140625	55225.4609375	53556.62890625	53296.76171875	47412.859375	53899.984375	54039.59375	36159.13671875	50165.96875	45269.27734375
180	240	41125.66796875	43219.57421875	44454.625	47008.81640625	42737.21875	54166.0390625	44049.421875	35934.26171875	40030.79296875	36167.39453125	36195.109375	42802.0859375	39215.4140625	37080.49609375	40930.38671875	43436.04296875	44258.67578125	47270.9296875	44930.140625	51854.7578125	42638.984375	38518.37109375	36413.40625	44540.08203125	38203.26953125	35064.6484375	9873.9462890625	16568.13671875	44369.5234375	37415.0859375	36290.31640625	10310.0556640625	44332.109375	43223.5625	50614.12890625	54866.15234375	29178.736328125	42445.13671875	45453.53515625	42096.1015625	49858.0	42187.79296875	39838.71875	50365.29296875	42126.3828125	44409.96875	40591.5859375	53011.1171875	48643.96875	43682.80078125	48898.66796875	54354.5546875	48044.17578125	51451.13671875	48450.5625	55121.61328125	48371.59375	49020.76171875	49161.91796875	45294.59765625	44580.06640625	49121.78125	37942.3359375	31555.2421875	48787.8203125	45451.3203125	50014.41796875	46188.03515625	48647.4140625	56656.79296875	28214.689453125	44665.27734375	44827.078125	39035.2109375	50244.95703125	43002.29296875	40314.71484375	53436.88671875	42257.31640625	42638.37890625	40619.234375	50988.5703125	47546.20703125	42526.12890625	48627.0078125	56483.5234375	49547.9375	49169.69921875	48284.98046875	54527.41015625	44229.3359375	49635.87890625	47597.6640625	44935.59375	44756.12890625	48800.21875	41568.0078125	29793.330078125	47222.72265625	44005.9296875
240	300	37541.0703125	39563.8046875	46042.78125	48916.3359375	45084.34765625	58655.91796875	44600.6015625	34952.046875	39355.46484375	38236.53515625	31240.3359375	48282.31640625	39332.79296875	31919.84765625	37550.828125	39270.3359375	45498.2734375	49855.62109375	48526.37109375	56206.6171875	43164.73046875	38109.10546875	37051.16796875	46910.93359375	37874.79296875	30506.056640625	8109.056640625	15254.9091796875	46240.79296875	40779.20703125	34109.1796875	11029.5791015625	47557.41015625	42114.65625	52224.83203125	54011.5234375	30479.13671875	45586.390625	49043.06640625	45637.19140625	48502.0	43850.69921875	44904.71484375	49855.51953125	44413.77734375	46617.0390625	40120.89453125	50536.53125	50700.703125	46753.5234375	50529.12109375	54861.546875	49108.0	51236.546875	49189.13671875	55274.9375	47116.90234375	51692.0546875	50020.15625	49220.56640625	43827.7734375	50843.65234375	47635.87109375	35955.80078125	50202.49609375	46431.7578125	48365.84375	46055.62109375	50874.77734375	55551.55859375	30842.953125	45985.4609375	47179.5625	42892.09375	47813.45703125	44848.05859375	44840.42578125	51263.3359375	44469.84375	45689.74609375	41606.75	49640.5859375	48399.6953125	46040.14453125	50356.62109375	56369.171875	50341.37890625	51105.01171875	48613.578125	53818.08984375	43980.08984375	51434.32421875	49242.49609375	49104.8828125	45053.45703125	49912.328125	48960.85546875	35083.64453125	43954.4375	44270.82421875
300	360	35007.8125	36671.83984375	42733.81640625	45369.515625	41313.55859375	53638.99609375	40886.44921875	32077.681640625	37992.49609375	37140.98828125	28235.14453125	44318.25390625	37680.38671875	29245.39453125	35248.4453125	36787.52734375	43197.66796875	47599.28125	43445.359375	52615.390625	41001.4140625	35990.1796875	36599.60546875	46985.60546875	37109.80078125	26650.923828125	8013.87158203125	14104.0087890625	43320.5078125	37609.89453125	29993.685546875	10975.4091796875	44374.11328125	43523.3828125	46283.2265625	48339.12109375	28475.822265625	42113.078125	44995.71875	43264.2109375	43681.1015625	40965.11328125	42076.7421875	46543.57421875	41253.74609375	43202.2890625	39990.4296875	46881.9375	46221.125	46168.37109375	45549.75	50676.171875	45205.10546875	49545.23828125	45531.14453125	49454.58984375	42948.875	46648.09765625	45450.75390625	45454.85546875	40322.21875	46628.1171875	39003.78125	32453.501953125	47051.00390625	43443.69921875	46203.640625	44385.27734375	46961.8203125	50080.2734375	27229.884765625	45028.43359375	43769.1484375	41594.078125	43798.859375	40963.28515625	40195.875	46353.19140625	39627.06640625	43147.2265625	40216.62109375	45590.59765625	44240.6171875	43543.9921875	44813.44921875	52544.78125	45969.296875	47451.04296875	44667.56640625	49014.796875	39466.3203125	46982.2890625	44898.953125	45122.078125	41439.19140625	45993.76953125	44571.1015625	33511.78125	40605.171875	41511.6796875
360	480	31789.8828125	32874.28125	37699.24609375	41871.36328125	35061.5078125	47823.3359375	40748.59765625	29908.013671875	33057.76953125	33903.4140625	24286.712890625	41003.82421875	35901.6875	22833.48828125	31581.904296875	32796.33984375	37686.08203125	42617.453125	37310.85546875	45972.98828125	38678.2265625	33107.16015625	33223.76953125	41984.70703125	34327.4296875	24386.662109375	7592.609375	13298.765625	37410.65625	33512.10546875	25955.646484375	10919.58984375	38882.42578125	38121.26171875	40840.42578125	41019.55078125	28704.583984375	39119.078125	39521.28515625	38599.55859375	37505.6484375	35749.6796875	37636.87890625	39681.46484375	35560.28515625	38280.34765625	36899.74609375	39660.54296875	40029.453125	41580.75	39625.78515625	42654.0625	39116.6015625	42228.37890625	40074.12890625	42300.9453125	38340.83203125	41006.69921875	39289.984375	39207.0625	35784.375	40748.11328125	32458.939453125	31392.38671875	40527.77734375	39025.96484375	39551.046875	40074.9453125	40340.42578125	42427.17578125	27892.9140625	40318.91015625	38046.37890625	37534.80078125	39092.94921875	36267.44921875	36418.43359375	39592.16015625	35849.62890625	37915.23828125	36155.23046875	40514.96875	38693.28515625	39853.37890625	39382.703125	42827.75	39838.83984375	42672.5	39002.77734375	42123.91796875	36121.72265625	40227.55078125	39163.5546875	39356.8828125	35964.50390625	40409.00390625	38866.63671875	30197.673828125	36338.87109375	36856.70703125
480	600	28306.84765625	29308.857421875	31657.48828125	35171.2265625	28788.736328125	38970.109375	35139.921875	26719.912109375	28892.3203125	29611.078125	22010.52734375	30752.4921875	31147.22265625	20956.32421875	28118.259765625	29094.642578125	31493.330078125	36308.68359375	30736.94921875	37843.65625	34008.0625	28602.36328125	29162.716796875	32798.60546875	30568.560546875	22758.474609375	7271.32861328125	12542.7783203125	31848.23046875	29710.76171875	21980.302734375	10449.9833984375	33398.21484375	32658.466796875	32269.939453125	33200.88671875	23805.2109375	32850.1328125	31554.267578125	32211.67578125	31084.662109375	29623.087890625	27488.236328125	32601.9453125	28489.921875	31405.1796875	32282.51171875	32493.556640625	31755.93359375	29726.6875	29973.646484375	33134.6484375	31226.984375	34838.16796875	31501.16015625	33379.93359375	32183.150390625	31605.671875	31474.138671875	31060.751953125	29953.779296875	32368.92578125	24125.826171875	25222.7265625	33130.88671875	33694.9765625	33419.86328125	33223.84765625	31747.435546875	33791.22265625	22565.1015625	33596.95703125	30476.158203125	31544.396484375	31628.142578125	29696.107421875	27592.04296875	32500.212890625	29550.19140625	31320.552734375	30797.1875	32715.875	30599.474609375	29977.013671875	31219.107421875	34024.05078125	31714.439453125	35678.59375	31520.88671875	33135.4609375	31121.28515625	31405.41015625	30861.982421875	30911.716796875	29551.458984375	32392.193359375	26713.365234375	25765.201171875	30860.23828125	31667.45703125
600	900	23595.265625	24142.373046875	24588.93359375	28837.966796875	23062.8046875	30952.796875	31374.923828125	22668.685546875	24346.8671875	25404.791015625	17804.294921875	26299.59375	26506.318359375	17479.18359375	23371.96484375	24628.53515625	24098.919921875	29347.15234375	24480.201171875	29963.47265625	30421.50390625	23156.642578125	25025.984375	27732.62109375	25611.001953125	18531.05859375	5683.88623046875	11280.73046875	24136.689453125	24678.41015625	17397.125	9924.27734375	25599.685546875	25950.421875	25630.787109375	26009.025390625	20799.244140625	26541.0859375	25029.4921875	26541.560546875	24076.490234375	25564.533203125	22788.626953125	26399.509765625	24075.298828125	25148.5859375	25505.806640625	24531.2421875	25083.0234375	21457.388671875	24969.259765625	25747.46875	23859.279296875	26334.369140625	24209.384765625	25588.2109375	25869.529296875	25724.603515625	24401.982421875	23644.154296875	24151.154296875	24951.869140625	21009.384765625	22052.45703125	26388.248046875	26975.705078125	26628.43359375	25691.859375	25706.958984375	25904.751953125	20124.560546875	27483.03125	24997.2109375	26496.626953125	24166.478515625	25662.919921875	23034.390625	25897.580078125	24769.05078125	25349.767578125	25980.33203125	24319.91796875	24215.01171875	22213.15234375	24933.154296875	26062.716796875	23422.859375	26512.484375	24003.91015625	25094.244140625	25837.81640625	24963.392578125	24130.451171875	24160.50390625	23869.36328125	24923.80078125	22899.7265625	22166.328125	24227.224609375	25093.337890625
900	1200	19761.455078125	19784.2265625	17859.73828125	22132.9140625	16734.92578125	22843.7890625	24705.5859375	17566.708984375	19270.66796875	19941.91015625	14193.494140625	19661.904296875	21958.537109375	14525.880859375	19515.326171875	19830.166015625	17575.0390625	22091.40625	17747.193359375	21685.162109375	24186.33203125	17520.162109375	19092.18359375	20552.16015625	20852.70703125	15031.5498046875	5097.2265625	10764.775390625	17299.185546875	19980.1171875	13462.9130859375	9495.09375	20352.5625	19849.751953125	19325.28515625	19517.421875	16603.451171875	20613.265625	19316.7421875	20701.943359375	18689.39453125	19218.205078125	18825.701171875	20125.888671875	18750.33984375	19545.294921875	19864.669921875	19125.78515625	19218.82421875	17892.3359375	18931.2734375	19724.70703125	18539.94140625	20871.3046875	18701.82421875	19610.92578125	19413.830078125	19570.53515625	18220.0859375	18445.296875	18575.75	19602.5	16574.814453125	17740.14453125	20197.001953125	20732.673828125	20612.75390625	19388.634765625	18990.4921875	20035.10546875	16607.650390625	21210.11328125	18920.79296875	20287.7734375	19060.583984375	19467.966796875	18219.400390625	20000.484375	18754.857421875	19432.07421875	19810.38671875	18919.28515625	18734.32421875	17867.40625	19151.1484375	20236.884765625	18254.328125	20760.181640625	18433.541015625	19566.00390625	19017.439453125	18977.859375	17898.55859375	18842.390625	18447.318359375	19049.09765625	17849.7109375	17956.9609375	18719.556640625	19781.634765625
1200	1500	17628.9921875	16660.80859375	14373.9267578125	18379.021484375	13947.16015625	18122.9453125	20805.5859375	14702.23046875	15873.04296875	16478.685546875	12277.48828125	15661.2880859375	18737.541015625	13199.6904296875	17454.38671875	16862.396484375	14069.8515625	18008.5703125	14887.3984375	17615.69921875	20354.865234375	14390.0927734375	16032.1298828125	15135.236328125	18208.056640625	13637.4794921875	4504.50732421875	10320.16796875	14095.052734375	16851.369140625	11627.8134765625	9357.052734375	17995.123046875	16866.53125	16180.0126953125	16921.658203125	14375.91796875	18201.716796875	17092.634765625	18102.60546875	16480.5859375	17296.37890625	16506.142578125	17515.896484375	16187.7001953125	16733.302734375	16530.08984375	15873.296875	17029.47265625	15578.5498046875	16886.521484375	17655.154296875	15569.189453125	17213.70703125	15662.1748046875	16986.966796875	16159.7587890625	16750.578125	15361.1728515625	15792.6982421875	15798.1220703125	16882.015625	14316.767578125	14914.955078125	16702.685546875	17506.8203125	17848.630859375	16233.240234375	16503.6171875	17284.025390625	13985.521484375	18249.30078125	16643.376953125	17824.28515625	16558.99609375	16963.384765625	16267.4501953125	17278.068359375	16164.9619140625	16623.583984375	16334.173828125	15926.3017578125	16116.001953125	15924.81640625	16600.865234375	17491.8984375	15480.4814453125	17893.630859375	15646.0517578125	16720.228515625	16439.482421875	16412.63671875	15134.2060546875	16275.51171875	15708.873046875	16457.66015625	15814.67578125	15382.408203125	15943.111328125	16607.263671875
1500	1800	16476.947265625	14584.60546875	12368.509765625	15405.6015625	12866.4794921875	15907.2900390625	17537.67578125	12973.9599609375	14060.609375	13897.1025390625	11368.271484375	13143.451171875	15981.177734375	12172.251953125	16284.021484375	14363.78515625	12034.724609375	15231.923828125	12807.2880859375	15476.9501953125	17575.5546875	12808.5615234375	13836.7421875	13318.123046875	15949.5625	12262.703125	4422.02685546875	9855.859375	11813.9384765625	14850.421875	10759.08203125	9325.0283203125	16684.7265625	15433.5078125	15017.818359375	15651.3681640625	12822.826171875	16782.3125	15360.396484375	16955.02734375	15473.4453125	15838.8056640625	15299.3037109375	16229.6044921875	14556.1943359375	15223.8515625	15270.3388671875	14589.861328125	15792.5263671875	14526.4111328125	15026.8212890625	16098.197265625	14196.306640625	15800.8466796875	14458.013671875	15415.89453125	14522.6572265625	15040.2802734375	13816.52734375	14422.310546875	14199.1767578125	15366.9990234375	12687.513671875	13399.5029296875	15536.609375	16238.3251953125	16409.13671875	14416.7646484375	14965.4501953125	15978.0908203125	12278.30078125	16810.14453125	14958.7080078125	16543.888671875	15851.9794921875	15555.4091796875	15266.8896484375	16048.1083984375	14604.8681640625	15022.328125	15153.693359375	14685.7646484375	14828.427734375	15153.5615234375	15144.361328125	16678.783203125	14232.595703125	16309.939453125	14030.2587890625	15386.69921875	14475.974609375	14960.8095703125	13508.40625	14792.03515625	13926.6494140625	15139.7890625	13944.6328125	12878.21875	14308.3701171875	15231.7724609375
1800	2100	15519.728515625	13141.4375	11318.5927734375	13814.736328125	12270.896484375	14737.0771484375	16052.7421875	11144.6591796875	12748.5966796875	13002.8046875	10777.7021484375	11581.7470703125	14771.857421875	11363.705078125	15389.1484375	12962.8994140625	11056.9501953125	13480.2265625	12163.2119140625	13927.8818359375	15043.97265625	12081.85546875	12606.619140625	12035.294921875	14320.9404296875	11943.50390625	4348.57958984375	9609.953125	11008.29296875	13298.06640625	10269.85546875	9068.9560546875	15895.2490234375	13709.4150390625	14097.009765625	14335.033203125	11907.1142578125	15855.1640625	14523.1357421875	15859.8759765625	14620.4755859375	14964.7890625	14684.0458984375	15296.9375	13570.6513671875	14194.3671875	13486.205078125	13791.5595703125	14758.3818359375	13546.2900390625	14346.958984375	15384.8125	13599.35546875	14396.8232421875	13241.8603515625	14668.337890625	13312.5751953125	14226.9404296875	12719.162109375	13575.978515625	13117.1875	14405.8349609375	12072.5830078125	12699.75	14512.970703125	14972.1533203125	15303.4296875	13654.482421875	13859.4794921875	14843.962890625	11472.1513671875	15715.11328125	14177.001953125	15690.447265625	15474.671875	14802.0693359375	14420.853515625	15143.5390625	13624.8046875	14179.0615234375	13651.3779296875	13503.3134765625	14136.2958984375	14847.48046875	14388.3583984375	15506.416015625	13317.068359375	14790.9482421875	13284.0498046875	14392.4443359375	13263.1337890625	13986.6962890625	12535.8193359375	13956.26171875	13129.43359375	14335.529296875	12935.6328125	12484.9482421875	13598.3076171875	14265.724609375
2100	2400	14806.80859375	11845.98046875	10422.162109375	12382.71484375	11015.0087890625	13452.734375	14152.0068359375	10089.3369140625	11865.5517578125	11400.58984375	10324.33984375	9816.5595703125	12908.1025390625	10613.494140625	14587.6181640625	11984.5849609375	10265.5537109375	12318.6416015625	11225.123046875	13025.845703125	14446.16015625	11195.2001953125	11513.595703125	11496.869140625	12858.3349609375	11064.01171875	4319.81396484375	9367.7978515625	10295.81640625	12269.8388671875	9938.984375	8932.201171875	15447.462890625	13296.8623046875	12933.2236328125	13578.1162109375	11350.72265625	15026.630859375	13732.26953125	15108.8720703125	13896.4052734375	14119.3984375	14021.3515625	14530.123046875	13074.5380859375	13486.8974609375	12518.87109375	12959.9150390625	13988.060546875	13376.4921875	13494.9140625	14714.421875	12942.9443359375	13961.380859375	12731.03515625	13831.740234375	12884.5498046875	13354.1923828125	12035.1171875	12817.5185546875	12557.150390625	13648.291015625	11462.4794921875	12037.48046875	14148.568359375	14204.4912109375	14201.5556640625	13294.17578125	13260.0458984375	14560.751953125	10921.619140625	14820.666015625	13490.3173828125	14603.7587890625	14357.1083984375	13817.30859375	13833.0927734375	14475.1015625	13052.76953125	13560.9013671875	13080.7607421875	12899.171875	13342.1865234375	13775.8525390625	13918.484375	14513.3291015625	12562.0830078125	13806.076171875	12583.3388671875	13658.9580078125	12730.0732421875	13232.01953125	11873.90234375	13165.8671875	12468.9267578125	13574.5283203125	12412.556640625	11340.9765625	13674.7109375	13493.537109375
2400	2700	14148.884765625	11546.5498046875	9552.1474609375	11680.4462890625	10816.705078125	12737.923828125	13138.560546875	9427.5166015625	11144.6240234375	10574.3505859375	9618.3837890625	10376.60546875	11987.1318359375	10321.75390625	13941.5625	11173.1025390625	9375.8544921875	11420.2958984375	10502.7119140625	12054.9541015625	12629.65625	9950.5234375	9719.599609375	10373.181640625	11669.73046875	10146.3671875	4083.371826171875	9269.1708984375	9048.587890625	11370.7841796875	9537.8935546875	8756.7607421875	14648.34375	13321.0927734375	12801.4775390625	13401.78515625	10127.8310546875	14093.6640625	13368.4013671875	14487.951171875	13379.2841796875	13767.0830078125	13121.6259765625	14202.02734375	12168.388671875	13042.8759765625	12393.994140625	12328.7685546875	13804.4619140625	13037.8388671875	13523.07421875	14618.3076171875	12213.8017578125	13639.896484375	12178.9990234375	13306.9111328125	12274.7275390625	13060.3310546875	11557.5751953125	12245.4931640625	12230.318359375	13455.4296875	10318.70703125	11351.2001953125	13717.052734375	13377.3857421875	14184.259765625	12295.3740234375	12711.4912109375	13675.3427734375	10129.48046875	14298.2919921875	12819.7314453125	13998.1904296875	14056.619140625	13531.275390625	12946.0087890625	14244.146484375	12539.16015625	13149.0341796875	12318.5478515625	12448.845703125	12538.310546875	12743.2392578125	13041.5458984375	14072.5009765625	12063.228515625	13220.3330078125	12044.0087890625	13086.7626953125	12536.55859375	12720.1796875	11737.6328125	12674.63671875	11790.82421875	12992.890625	12287.8564453125	10903.533203125	12758.3203125	13124.341796875
