frame_start	frame_end	Left-Cerebral-White-Matter	Left-Cerebellum-White-Matter	Left-Cerebellum-Cortex	Left-Thalamus	Left-Caudate	Left-Putamen	Left-Pallidum	Brain-Stem	Left-Hippocampus	Left-Amygdala	CSF	Left-Accumbens-area	Left-VentralDC	Left-choroid-plexus	Right-Cerebral-White-Matter	Right-Cerebellum-White-Matter	Right-Cerebellum-Cortex	Right-Thalamus	Right-Caudate	Right-Putamen	Right-Pallidum	Right-Hippocampus	Right-Amygdala	Right-Accumbens-area	Right-VentralDC	Right-choroid-plexus	AirCavity	Skull	Vermis	Pons	CSF-ExtraCerebral	Head-ExtraCerebral	ctx-lh-bankssts	ctx-lh-caudalanteriorcingulate	ctx-lh-caudalmiddlefrontal	ctx-lh-cuneus	ctx-lh-entorhinal	ctx-lh-fusiform	ctx-lh-inferiorparietal	ctx-lh-inferiortemporal	ctx-lh-isthmuscingulate	ctx-lh-lateraloccipital	ctx-lh-lateralorbitofrontal	ctx-lh-lingual	ctx-lh-medialorbitofrontal	ctx-lh-middletemporal	ctx-lh-parahippocampal	ctx-lh-paracentral	ctx-lh-parsopercularis	ctx-lh-parsorbitalis	ctx-lh-parstriangularis	ctx-lh-pericalcarine	ctx-lh-postcentral	ctx-lh-posteriorcingulate	ctx-lh-precentral	ctx-lh-precuneus	ctx-lh-rostralanteriorcingulate	ctx-lh-rostralmiddlefrontal	ctx-lh-superiorfrontal	ctx-lh-superiorparietal	ctx-lh-superiortemporal	ctx-lh-supramarginal	ctx-lh-frontalpole	ctx-lh-temporalpole	ctx-lh-transversetemporal	ctx-lh-insula	ctx-rh-bankssts	ctx-rh-caudalanteriorcingulate	ctx-rh-caudalmiddlefrontal	ctx-rh-cuneus	ctx-rh-entorhinal	ctx-rh-fusiform	ctx-rh-inferiorparietal	ctx-rh-inferiortemporal	ctx-rh-isthmuscingulate	ctx-rh-lateraloccipital	ctx-rh-lateralorbitofrontal	ctx-rh-lingual	ctx-rh-medialorbitofrontal	ctx-rh-middletemporal	ctx-rh-parahippocampal	ctx-rh-paracentral	ctx-rh-parsopercularis	ctx-rh-parsorbitalis	ctx-rh-parstriangularis	ctx-rh-pericalcarine	ctx-rh-postcentral	ctx-rh-posteriorcingulate	ctx-rh-precentral	ctx-rh-precuneus	ctx-rh-rostralanteriorcingulate	ctx-rh-rostralmiddlefrontal	ctx-rh-superiorfrontal	ctx-rh-superiorparietal	ctx-rh-superiortemporal	ctx-rh-supramarginal	ctx-rh-frontalpole	ctx-rh-temporalpole	ctx-rh-transversetemporal	ctx-rh-insula
0	30	52.25751495361328	62.32784652709961	24.007938385009766	315.3174743652344	106.03431701660156	314.4347839355469	-98.22447967529297	-11.584382057189941	202.65081787109375	78.27796936035156	142.58056640625	917.6625366210938	232.7654266357422	1351.142333984375	76.2920913696289	160.23089599609375	43.297828674316406	180.035888671875	84.6445083618164	227.2398223876953	289.1119384765625	144.96731567382812	287.89453125	1514.6871337890625	127.83389282226562	-36.38340759277344	-35.46553039550781	66.47798919677734	27.461881637573242	48.792205810546875	236.51296997070312	11.324531555175781	275.1965637207031	349.1058044433594	213.65313720703125	190.0644073486328	301.3769836425781	233.214599609375	213.89566040039062	26.693140029907227	309.5002746582031	121.80127716064453	393.6813049316406	301.9934387207031	202.19854736328125	189.8389434814453	1.774184226989746	354.5158386230469	366.4615173339844	73.63756561279297	216.3857421875	328.74267578125	318.4454040527344	108.23041534423828	274.3055725097656	317.6430358886719	261.5438232421875	315.7080383300781	363.2005920410156	200.64901733398438	106.4025650024414	403.3996887207031	390.20172119140625	-123.96150207519531	-181.87916564941406	733.4796142578125	283.36846923828125	5.4339141845703125	407.4353942871094	253.8158416748047	534.3497924804688	192.75865173339844	208.30825805664062	123.3869400024414	235.4567413330078	46.65177536010742	378.3286437988281	335.43377685546875	89.15209197998047	92.68112182617188	-253.11949157714844	398.4772644042969	522.4877319335938	308.3394775390625	366.0957946777344	387.1053466796875	282.731689453125	252.00125122070312	230.22203063964844	189.8689727783203	81.18658447265625	194.52059936523438	285.02197265625	195.86505126953125	151.5751953125	341.16064453125	20.790992736816406	-130.74871826171875	1341.169921875	97.61299896240234
30	60	1022.17822265625	3706.35302734375	4603.85205078125	5557.98974609375	7469.0869140625	8846.1513671875	1203.584228515625	3240.080810546875	5988.30322265625	1739.514404296875	4295.3603515625	7751.02392578125	6052.763671875	20650.935546875	1687.8770751953125	3401.638671875	4566.32568359375	5776.509765625	8325.470703125	8339.8427734375	2496.98828125	4007.295166015625	3697.40576171875	6794.31884765625	4853.01171875	9660.4296875	77.387939453125	1738.63671875	4791.015625	4778.826171875	4404.4326171875	790.7819213867188	8248.888671875	4354.13623046875	9945.5751953125	9937.677734375	5910.083984375	6935.45849609375	8162.92333984375	6636.79833984375	8801.0	6503.1591796875	8243.49609375	10403.416015625	9053.4130859375	6948.2724609375	3117.435791015625	9803.9638671875	9473.7978515625	8300.7431640625	11088.8154296875	13722.13671875	8958.2001953125	9901.548828125	7725.73095703125	9420.642578125	12529.4794921875	8651.2998046875	9755.24609375	8364.4609375	6110.7333984375	8782.591796875	9843.3173828125	3120.699951171875	9384.5908203125	8781.4248046875	6726.505859375	5058.2041015625	8381.4921875	12541.2861328125	8273.818359375	7214.04931640625	6486.6220703125	5219.970703125	8592.2236328125	7099.16064453125	7482.18701171875	9726.271484375	6853.662109375	5376.51513671875	4600.09521484375	8373.890625	8604.0380859375	3381.635009765625	9064.654296875	13136.265625	9648.447265625	5032.06494140625	7029.16552734375	9612.859375	3635.90283203125	7881.95458984375	7153.22021484375	7520.88818359375	6281.70947265625	7411.5341796875	8308.4560546875	2892.15966796875	3365.9658203125	5356.6796875
60	90	4057.430419921875	12504.650390625	16891.705078125	20386.09765625	26398.619140625	31665.525390625	6966.341796875	12465.05078125	19171.142578125	11955.6240234375	12931.5732421875	12627.8115234375	16517.890625	62190.3828125	5250.875	11590.708984375	16557.03515625	20383.80859375	28692.529296875	29688.68359375	4424.41455078125	16853.0546875	15066.8623046875	19845.837890625	15460.005859375	56261.0546875	93.24380493164062	5376.60009765625	20096.59765625	15696.3291015625	9864.3115234375	3022.355712890625	28165.822265625	19161.03515625	32836.546875	35663.3046875	12320.4697265625	25010.283203125	28475.392578125	23073.12109375	29804.3046875	25028.998046875	26649.431640625	31774.486328125	30502.935546875	24729.9609375	17161.0	32311.390625	31283.55078125	26474.580078125	33730.78515625	51943.41796875	32004.0625	30274.029296875	29849.365234375	33102.56640625	31428.169921875	32196.095703125	31994.27734375	30620.826171875	21342.98046875	30366.80078125	34334.20703125	12857.25390625	40372.30078125	22740.96875	25780.7890625	15047.1611328125	30657.796875	42338.1015625	13324.2861328125	24897.484375	25786.50390625	19648.85546875	27889.966796875	26593.61328125	26023.40234375	33459.5	23841.787109375	22261.1875	12780.3994140625	28803.3515625	30070.90234375	20465.720703125	33099.74609375	50352.16796875	35817.14453125	22393.390625	27693.919921875	31162.01953125	12258.1142578125	30646.013671875	28332.296875	29899.900390625	23605.9296875	27935.94140625	32499.16796875	15726.1552734375	18038.28125	17873.150390625
90	120	7847.21484375	20632.69921875	32369.9921875	39095.5390625	50208.2890625	59342.9375	8279.1455078125	23010.505859375	39148.1640625	19934.390625	19763.013671875	25895.8515625	26975.921875	103225.34375	8908.9189453125	21519.37109375	31951.09765625	37014.07421875	56448.80078125	57856.45703125	13162.9013671875	31944.560546875	27032.21875	36144.47265625	28164.3046875	105257.6484375	798.178955078125	8460.6474609375	34231.98828125	29037.1015625	14643.689453125	5533.5341796875	54925.88671875	26754.083984375	62042.625	66209.25	17863.00390625	44760.421875	54417.0546875	42838.7421875	54848.7890625	47722.7109375	47786.8984375	57527.8828125	53176.21875	44266.0	27352.203125	63755.109375	54605.3984375	46390.78125	68376.28125	93341.2421875	60650.21875	55793.4765625	57087.140625	58161.1171875	50343.0546875	60143.765625	59502.37109375	58151.5625	41153.19140625	56449.9140625	62209.6015625	25857.498046875	57420.53125	40981.375	50075.921875	36685.52734375	61179.07421875	71492.2421875	18943.087890625	48233.80078125	50411.14453125	38483.85546875	60113.3515625	51595.3359375	48278.0234375	56718.78515625	42263.35546875	42306.375	29757.240234375	56852.2734375	51529.71484375	36796.82421875	60757.6875	97988.5078125	66449.8984375	47401.89453125	54397.8203125	61859.2890625	28225.548828125	59742.55078125	56917.08203125	60602.4921875	44179.67578125	52634.48046875	64986.39453125	25555.501953125	35178.6796875	33719.3359375
120	150	9919.5029296875	25319.30078125	49533.6328125	56687.47265625	73929.625	87318.1328125	23139.884765625	34444.92578125	55310.51171875	38117.62109375	19398.96875	44357.69140625	42952.1328125	142252.875	10480.16796875	27616.234375	51461.78125	57589.765625	79949.53125	86118.609375	22516.01953125	48096.68359375	42442.40625	52972.39453125	43996.53125	110382.46875	3142.50244140625	10909.9658203125	52661.53125	45093.3046875	4827.568359375	9222.8056640625	86459.2578125	89981.8515625	92943.9296875	96747.0703125	37593.953125	67753.078125	79359.3515625	72083.546875	79461.28125	79244.3046875	77759.3671875	84744.5390625	85226.4921875	70341.984375	67979.8359375	89664.578125	84664.8515625	91833.6328125	96148.5859375	149481.65625	92621.0625	99242.3515625	90153.328125	91610.8984375	71834.953125	95107.8515625	91793.53125	93100.421875	61467.59375	84886.4765625	98612.71875	46014.37109375	108899.1953125	62270.359375	77815.734375	66676.46875	92039.5703125	106791.5625	40283.3203125	67601.265625	74370.2421875	69862.5390625	94069.9375	83786.8984375	82445.1953125	85405.9921875	64068.30859375	70277.1171875	53727.93359375	94141.9921875	79749.3046875	84755.6015625	94623.5078125	145740.34375	101005.9296875	77035.7734375	91523.1015625	89574.4921875	52204.83984375	97490.203125	89865.0	96252.7109375	67300.0390625	83190.546875	104388.5859375	45745.30078125	103545.96875	55091.21484375
150	180	12112.6044921875	29504.53515625	57144.01953125	64713.48828125	80568.734375	98740.0859375	29221.62109375	38982.3359375	57719.31640625	40365.60546875	18627.310546875	50254.11328125	49878.984375	126787.671875	12304.6298828125	30943.322265625	58417.6328125	64483.8359375	91062.3671875	93969.078125	25928.421875	51588.9609375	48515.48046875	67769.0859375	52063.51953125	129535.453125	3330.01611328125	11781.4736328125	60667.40625	51861.48046875	-1345.8040771484375	10526.482421875	94380.296875	90690.5546875	109597.5390625	112395.2578125	48884.01171875	75294.3125	91123.5703125	79677.8125	88770.4609375	87856.2109375	88955.7890625	98931.4296875	90621.1328125	81993.5546875	72898.078125	106110.390625	93952.7109375	102296.8515625	106373.2109375	165072.421875	105001.0703125	102083.9921875	102310.7734375	106184.9921875	72379.265625	108934.28125	105863.9609375	106284.765625	70896.5234375	92862.2578125	112586.7421875	55976.6796875	120995.875	67153.671875	95152.3515625	81124.109375	111331.1328125	114084.6875	47139.37890625	78238.1796875	88152.46875	80342.8125	111179.8359375	95038.765625	91850.3203125	90318.265625	73815.0234375	80837.65625	70327.4375	105785.109375	92081.3125	100295.9453125	107622.453125	164140.9375	118036.03125	96941.2578125	103141.5625	101319.5703125	57252.73046875	112251.3125	105160.96875	113157.6953125	77017.7421875	93821.765625	118728.609375	47211.640625	112023.3828125	57889.296875
180	240	24574.8203125	40455.15625	49998.10546875	55900.1953125	66123.859375	81208.3125	32429.26953125	37559.66796875	48855.1484375	39662.25	28310.5703125	33650.921875	45091.1484375	81571.09375	24804.02734375	40287.9453125	49969.26171875	56825.83984375	69558.3828125	75293.8125	32115.494140625	45124.421875	43400.81640625	51896.1171875	43260.91015625	50684.3828125	2157.12841796875	16977.673828125	51063.24609375	41723.30078125	14169.6513671875	10603.15234375	67540.40625	61452.10546875	86946.2421875	101718.46875	29375.708984375	62007.3671875	72070.859375	61710.65625	75868.7109375	66436.6015625	60932.59765625	83072.203125	66023.6875	66662.84375	54163.17578125	91018.2578125	76881.8515625	69935.4921875	87089.8359375	112220.78125	84210.9296875	80252.265625	81935.859375	85389.5	71629.359375	85829.1640625	83460.65625	74862.2734375	65488.19140625	78823.3515625	60581.2734375	40133.87109375	75245.8515625	57033.1484375	78596.8359375	61023.01953125	79723.625	95398.171875	26912.357421875	68850.4765625	69333.6875	55810.06640625	80291.734375	70829.40625	62887.05859375	86808.6328125	60152.3984375	62283.5703125	44194.61328125	87119.5	72124.6875	68012.3203125	84728.5703125	114457.8671875	91266.703125	65994.9375	82767.3046875	86649.2734375	49221.1484375	88210.8984375	80863.859375	76826.234375	65781.109375	76363.609375	73720.765625	30407.4375	84057.0390625	53239.08984375
240	300	15051.9404296875	31924.0625	53869.875	62983.99609375	82069.5078125	94972.1328125	27892.017578125	36617.16015625	51895.2578125	47956.1953125	14908.935546875	52931.83203125	47738.12109375	92006.109375	15057.2880859375	30935.5234375	54044.67578125	64563.74609375	89148.953125	88320.65625	30479.744140625	49409.2734375	47629.578125	51347.84765625	45492.49609375	78650.875	418.9288330078125	15011.2060546875	59251.98046875	49351.36328125	-454.59442138671875	11960.384765625	85438.34375	69464.4140625	97546.609375	106047.9453125	45608.79296875	72154.6484375	83937.484375	73460.4375	80877.578125	77564.0703125	77788.5234375	85579.0859375	78640.5703125	75217.28125	57202.9140625	95271.578125	84416.46875	78668.765625	96333.0390625	129356.5703125	96330.6796875	86642.8359375	91125.9375	93918.796875	72335.90625	98266.8984375	93541.0859375	95415.21875	66477.171875	85756.59375	97403.625	53154.8515625	92757.5625	67074.703125	81741.5703125	66894.09375	95444.3359375	106322.0546875	45339.51171875	74002.734375	80804.203125	71055.9140625	84760.6171875	85037.2421875	79589.5	84888.0703125	72954.203125	74537.4140625	56327.26171875	94257.6015625	79734.3046875	80991.78125	96586.4140625	128188.125	106244.203125	84779.2890625	93261.2734375	90490.4140625	58942.12890625	102543.78125	94446.3671875	102220.4921875	71836.1484375	84834.1484375	99520.6171875	44252.84375	78427.265625	59942.5
300	360	14941.4462890625	29215.9453125	50247.1484375	58066.7578125	74309.953125	84607.7734375	27772.998046875	33641.078125	49705.515625	47819.94921875	10948.7001953125	53129.0078125	47497.734375	75723.9296875	15336.0869140625	28344.6796875	52031.72265625	61849.1015625	77819.9453125	81794.5859375	27651.65625	45163.984375	51054.04296875	66230.9453125	47222.17578125	47810.04296875	1154.812255859375	13855.138671875	56791.06640625	46006.30859375	-5101.05615234375	12113.4208984375	79985.4765625	81317.2890625	85542.828125	93219.265625	46181.36328125	64245.81640625	76474.9296875	70015.2265625	74757.734375	71579.21875	72783.3046875	79327.1640625	78335.125	68900.0390625	67934.8515625	88228.65625	75367.8359375	80839.28125	85539.40625	115410.4453125	89404.8359375	89136.71875	85518.78125	83542.625	67766.0078125	89154.875	86080.59375	89710.0234375	61438.00390625	78587.953125	72569.484375	49360.37109375	87961.7265625	63709.94921875	77704.8515625	66269.7421875	89778.9140625	93831.6953125	37099.02734375	71776.34375	75625.7890625	69788.140625	78577.1953125	78112.625	71135.4765625	73414.125	61675.3515625	69813.84375	60875.1484375	89550.078125	72067.8984375	80657.609375	85936.078125	116647.8203125	99821.5859375	73796.7109375	86090.6953125	83078.0078125	51824.76953125	94823.078125	86817.5859375	94929.375	67360.9375	78149.5390625	90722.78125	44494.92578125	72384.65625	57675.95703125
360	480	16015.875	26337.525390625	44249.109375	53733.23046875	60064.375	71620.0078125	35201.953125	32588.54296875	39128.24609375	46059.43359375	4809.7412109375	55677.8125	46705.79296875	37841.39453125	15046.9013671875	25971.431640625	45187.6484375	55249.04296875	64517.96875	69162.171875	31286.634765625	41909.37890625	45312.06640625	61998.578125	43947.15234375	56880.5078125	842.717529296875	13259.939453125	48131.6640625	40498.0625	-5767.10009765625	12174.9033203125	66683.484375	70237.9921875	74275.5390625	76953.8203125	50337.71875	58838.31640625	65685.921875	61253.0234375	60401.1796875	60585.4921875	63697.9609375	65845.984375	62710.41796875	59416.94921875	65259.87109375	74227.9921875	62370.44140625	74087.671875	70534.0703125	93205.5390625	75876.609375	70597.1171875	74268.9609375	69664.625	59603.84375	76249.734375	71883.828125	75674.5390625	53975.52734375	66642.5234375	55828.99609375	48179.33984375	71523.828125	57695.76953125	64567.73046875	63128.47265625	75335.328125	78532.6640625	45103.4140625	62976.60546875	65095.109375	62866.51953125	74698.703125	68255.703125	63060.2734375	61335.47265625	57506.29296875	60351.09375	54426.33984375	78371.625	62144.3125	74739.3046875	74850.3984375	91323.4921875	85400.625	70930.140625	75103.7890625	71504.859375	49436.03515625	80356.9765625	74889.5625	82417.265625	57565.51171875	68576.34375	78064.3515625	39069.515625	60374.93359375	52120.01953125
480	600	18969.029296875	25302.625	36518.75	43745.59765625	44529.53125	53458.01171875	33902.1015625	29356.935546875	31697.595703125	40530.30859375	3607.2890625	34869.1171875	39673.05859375	21474.794921875	17993.60546875	24630.63671875	36934.27734375	45567.24609375	48572.4765625	52204.84375	33087.81640625	33223.96875	39812.6640625	42897.12890625	39025.9375	42838.16796875	873.6356811523438	12972.8349609375	41579.93359375	35159.8125	-1288.931396484375	11595.0693359375	52996.21484375	56319.4609375	55766.44921875	58118.34375	36669.85546875	46293.19140625	48916.70703125	48664.98046875	46323.74609375	46129.109375	42643.0390625	47875.12890625	45763.5546875	45187.578125	56924.2421875	56071.4921875	46991.390625	50113.60546875	49089.62890625	63397.671875	55998.25390625	53271.515625	53265.171875	51338.0078125	48989.375	54868.44921875	53504.73046875	54342.71875	43439.94921875	49363.81640625	34386.15234375	38989.35546875	49232.875	50218.7265625	50485.5234375	50151.58203125	55680.3984375	60266.578125	31973.166015625	48676.953125	49081.0234375	50487.56640625	55049.0234375	51691.12109375	43676.34375	45617.828125	45636.85546875	46972.890625	45943.7890625	57896.55859375	45461.76953125	52659.37109375	55236.7265625	62194.19921875	61450.05078125	56705.078125	57217.3046875	51785.953125	42566.27734375	58406.42578125	54892.0	58779.83203125	44435.7734375	51405.6796875	46912.15234375	34006.48046875	48419.30078125	44356.97265625
600	900	18308.791015625	22145.029296875	27633.037109375	35408.5234375	33292.54296875	38848.61328125	35361.2109375	25767.150390625	26093.400390625	33674.4296875	-593.7044067382812	32126.2890625	33481.79296875	12821.2919921875	17305.72265625	23328.1328125	27252.552734375	36512.72265625	35498.56640625	38089.68359375	33863.23828125	25455.134765625	34381.8203125	38502.5390625	32540.46484375	38787.30078125	-1002.1415405273438	11882.28125	29895.16015625	28561.689453125	-431.9822998046875	11150.6181640625	37150.28515625	43038.02734375	41068.203125	42853.97265625	32549.6484375	35137.92578125	36188.91796875	39042.7734375	32727.251953125	37735.94140625	32332.916015625	37290.4765625	37376.44921875	33917.12890625	41545.22265625	37989.984375	34835.0703125	29840.00390625	40778.63671875	43087.34375	39455.70703125	37618.7734375	37128.5546875	37271.42578125	35950.0078125	41896.59375	38166.796875	38973.9609375	33351.2890625	35287.99609375	32507.912109375	33272.79296875	39649.296875	39557.8359375	37592.48828125	37551.87109375	41600.87890625	42681.421875	27957.642578125	37322.5	37865.43359375	41490.265625	38376.9765625	43148.93359375	34631.06640625	35200.76171875	37931.28125	36060.20703125	39785.078125	39413.3984375	34080.14453125	35944.35546875	42441.3046875	41370.55859375	40984.09765625	39737.06640625	39948.70703125	37347.24609375	36414.69921875	44057.87890625	39943.0	43651.640625	34715.4609375	37275.1875	39841.18359375	28761.568359375	37944.76171875	34006.19921875
900	1200	18249.00390625	20485.939453125	19087.734375	26108.927734375	19748.11328125	25193.76953125	29194.486328125	19053.53515625	19096.427734375	26349.77734375	-2091.65087890625	18906.337890625	28633.248046875	5791.34814453125	17325.5234375	20347.6875	19204.51953125	26396.958984375	21387.259765625	23621.84375	29246.275390625	17158.43359375	25352.45703125	26268.251953125	27131.763671875	26880.552734375	-1668.126708984375	12043.6943359375	19242.85546875	23375.19140625	-608.3713989257812	10506.1357421875	26179.1328125	31486.109375	27408.11328125	29386.66796875	24905.537109375	26575.068359375	24950.671875	28314.083984375	22994.333984375	24058.85546875	24613.294921875	26454.125	27043.046875	23874.833984375	30706.17578125	27554.025390625	24172.490234375	23223.74609375	25854.927734375	27333.064453125	27941.5859375	28611.30078125	25752.6015625	26095.625	25484.185546875	28203.7109375	25778.41796875	27531.1953125	23442.302734375	25154.755859375	21110.953125	25365.45703125	27538.89453125	28599.576171875	26127.6875	26683.1796875	27640.068359375	31622.421875	21807.673828125	27607.419921875	26252.1171875	29818.00390625	28394.294921875	29222.5703125	24300.322265625	25451.83984375	26214.576171875	25304.029296875	28846.9453125	28460.291015625	24769.96484375	27275.611328125	29626.90234375	26176.35546875	29835.67578125	27777.734375	27881.841796875	26899.15625	24314.544921875	30858.544921875	27175.169921875	31215.36328125	25347.173828125	25915.958984375	28743.015625	22437.205078125	25082.583984375	25873.609375
1200	1500	17568.955078125	18202.7109375	14616.6845703125	21135.439453125	15024.1357421875	17546.6484375	26153.65234375	15615.568359375	14477.7578125	20960.51171875	-2579.167724609375	10713.5966796875	24285.025390625	9793.466796875	16648.486328125	18383.185546875	14612.1708984375	20645.646484375	16965.484375	17395.6796875	25315.43359375	13416.634765625	19868.408203125	10719.51953125	24267.92578125	31316.716796875	-2336.584716796875	11710.822265625	15652.07421875	19347.068359375	-157.23387145996094	10375.9619140625	22379.4921875	24145.94921875	20971.154296875	23498.125	20491.091796875	23587.001953125	20981.0078125	23671.0703125	20076.46875	20330.705078125	20269.544921875	21940.66796875	22249.1171875	19004.998046875	22590.962890625	20072.037109375	20995.6328125	18406.865234375	22143.9921875	22319.90625	21750.04296875	21024.5625	19783.14453125	21694.001953125	19959.61328125	22352.919921875	19953.521484375	22182.533203125	18482.138671875	20310.568359375	16853.232421875	20056.845703125	22047.876953125	22669.302734375	21596.513671875	21293.15625	22774.068359375	27215.20703125	16582.71484375	23111.359375	21941.87109375	25418.501953125	23472.21484375	24091.248046875	20773.0078125	21687.875	21544.126953125	20134.29296875	21747.6953125	21594.8671875	20714.79296875	23078.09375	23924.248046875	19527.79296875	23810.123046875	25019.85546875	22441.73046875	21604.095703125	20642.61328125	25329.1796875	21320.35546875	25707.25390625	20366.5078125	21082.4140625	24746.9140625	17830.27734375	20907.810546875	20714.2265625
1500	1800	17167.75390625	16449.623046875	12130.408203125	16948.1015625	13165.0634765625	14769.060546875	20787.216796875	13580.2626953125	12234.875	16362.5830078125	-1738.9410400390625	4015.361572265625	20289.251953125	6554.2490234375	16353.119140625	15829.921875	12087.6142578125	16909.740234375	12410.794921875	14318.0556640625	21227.025390625	10950.171875	16421.599609375	7854.5625	20928.197265625	26717.388671875	-2139.281005859375	11112.87109375	13112.8984375	16783.447265625	685.5618286132812	10419.53515625	20277.603515625	21697.802734375	19021.42578125	20176.212890625	17466.349609375	21316.1640625	17681.34765625	22082.376953125	17706.59765625	17705.9375	18046.734375	20374.31640625	19234.076171875	16158.69921875	20740.263671875	17355.8828125	19246.01953125	17086.318359375	17135.935546875	18184.6640625	18561.94140625	18249.607421875	17461.181640625	18650.5703125	16672.501953125	19194.69140625	16954.984375	19343.38671875	15392.83203125	17756.734375	12834.8994140625	17475.658203125	21857.265625	20428.99609375	19352.19140625	18678.994140625	19907.478515625	24410.88671875	12631.912109375	21002.681640625	18502.130859375	23371.34375	22733.67578125	20950.533203125	18864.8984375	19766.2578125	18608.703125	17555.111328125	20226.646484375	19303.775390625	18433.01953125	21670.287109375	20607.82421875	18182.26171875	21242.134765625	21689.66015625	18710.794921875	18890.859375	17564.822265625	22091.310546875	17686.576171875	22030.904296875	16866.205078125	18715.607421875	20428.029296875	12383.5498046875	17546.5859375	18442.404296875
1800	2100	16415.8671875	14891.8837890625	10876.5771484375	14892.908203125	12495.630859375	13435.2119140625	18454.978515625	10881.6962890625	10659.076171875	14819.9619140625	-1086.24755859375	682.3056030273438	19054.361328125	8561.814453125	15808.3466796875	14505.4169921875	10826.4296875	14560.6240234375	11760.6396484375	12638.984375	16298.6923828125	10537.076171875	14343.2138671875	5021.7041015625	18194.97265625	24058.357421875	-2048.025634765625	10876.7216796875	12334.84765625	15220.140625	1326.5279541015625	10124.537109375	19848.5078125	16912.02734375	17511.802734375	17059.44140625	15243.3984375	20882.466796875	16233.232421875	20091.32421875	17502.4140625	16567.689453125	17401.931640625	19254.5078125	17147.982421875	14828.4892578125	15620.2333984375	16595.4453125	17751.623046875	14846.11328125	16718.076171875	18547.37890625	18265.55859375	15487.8505859375	14917.7158203125	17697.951171875	15222.869140625	17768.361328125	14736.140625	17502.228515625	13407.349609375	16036.802734375	13124.12109375	16228.75390625	20358.5234375	18534.2265625	16959.4453125	17810.568359375	17356.03125	21980.41796875	10992.46484375	19890.119140625	17236.841796875	21706.08203125	21849.3984375	19548.5390625	17603.142578125	18911.26171875	17231.921875	16018.818359375	16023.0078125	15931.48046875	17501.740234375	21382.67578125	19121.31640625	15472.3798828125	18867.490234375	19864.13671875	17380.189453125	16977.9296875	15137.361328125	19942.380859375	15783.5751953125	20194.05078125	15342.6943359375	17208.326171875	18409.736328125	12025.759765625	20119.509765625	16369.052734375
2100	2400	15969.005859375	13409.6650390625	9845.013671875	13011.2138671875	10039.2236328125	11572.4638671875	16126.8017578125	9394.1142578125	10047.2021484375	11547.4755859375	265.0722351074219	-3932.609130859375	16145.31640625	1712.6624755859375	15115.1455078125	13379.244140625	9916.98828125	12903.986328125	10043.1376953125	11524.251953125	16934.125	9802.0263671875	12086.015625	3429.8447265625	16208.7587890625	18948.169921875	-1877.743896484375	10552.5732421875	11541.3720703125	13975.8671875	2051.30224609375	9993.1337890625	19041.486328125	15803.1357421875	15260.04296875	15481.478515625	13335.1328125	19983.2734375	14911.8828125	19021.177734375	15673.087890625	15161.3095703125	16176.44921875	18250.681640625	16705.142578125	13665.3623046875	13416.1015625	14733.623046875	16297.41015625	15470.5625	14959.0712890625	16388.943359375	16768.466796875	15689.3818359375	14201.6572265625	15751.9853515625	14741.345703125	16083.6435546875	13564.876953125	15767.12890625	12690.166015625	14956.078125	11271.4208984375	14978.3466796875	19277.927734375	17051.033203125	15535.7666015625	17730.22265625	16497.046875	22036.59375	9799.712890625	19196.89453125	16065.6015625	19771.4453125	19695.107421875	17442.81640625	16423.0625	18168.263671875	16195.88671875	15313.3017578125	15646.7431640625	15069.99609375	16265.8388671875	18850.66015625	18239.9375	13906.814453125	17282.595703125	16844.79296875	16159.619140625	16029.80859375	14297.650390625	18502.109375	14483.353515625	18411.06640625	14086.3095703125	16097.5517578125	17895.447265625	10324.4873046875	18856.60546875	15244.611328125
2400	2700	15084.92578125	13556.9462890625	8729.263671875	12299.1015625	9987.1611328125	11226.6455078125	14046.4970703125	8888.5419921875	9055.52734375	10969.8779296875	-29.897907257080078	891.72412109375	14795.1904296875	3732.103271484375	14377.1474609375	12659.2197265625	8808.607421875	12129.3154296875	9501.703125	10605.47265625	13376.076171875	7836.57958984375	9633.7412109375	2941.812255859375	14558.466796875	16467.181640625	-2148.36474609375	10486.712890625	9368.3818359375	12785.1279296875	2000.721923828125	9791.0859375	17817.4296875	18009.59375	15532.13671875	16168.8994140625	11513.4384765625	18689.576171875	14697.6259765625	18366.607421875	14870.392578125	14784.19140625	14716.7734375	18705.18359375	14755.775390625	13381.357421875	15151.26171875	13661.212890625	16689.818359375	15007.8955078125	15585.5087890625	16587.0	15165.9990234375	17077.09765625	13656.013671875	15689.7119140625	13990.3876953125	16128.2685546875	12745.9384765625	15214.7412109375	12550.935546875	15157.6953125	9362.931640625	13933.2109375	19835.20703125	15866.873046875	16543.294921875	15005.8505859375	15935.427734375	20126.17578125	8581.0927734375	18337.173828125	14954.7734375	18585.97265625	19807.671875	17470.78125	15278.3232421875	19036.140625	15586.732421875	15204.65625	14778.4853515625	15057.5673828125	14623.21875	17014.84375	16741.56640625	13602.0390625	16690.3671875	15719.984375	15437.4501953125	14950.8154296875	14974.3759765625	17890.908203125	14437.0439453125	18024.802734375	13020.3046875	15404.646484375	18492.693359375	10078.4970703125	17506.96875	15724.0380859375
