frame_start	frame_end	Left-Cerebral-White-Matter	Left-Cerebellum-White-Matter	Left-Cerebellum-Cortex	Left-Thalamus	Left-Caudate	Left-Putamen	Left-Pallidum	Brain-Stem	Left-Hippocampus	Left-Amygdala	CSF	Left-Accumbens-area	Left-VentralDC	Left-choroid-plexus	Right-Cerebral-White-Matter	Right-Cerebellum-White-Matter	Right-Cerebellum-Cortex	Right-Thalamus	Right-Caudate	Right-Putamen	Right-Pallidum	Right-Hippocampus	Right-Amygdala	Right-Accumbens-area	Right-VentralDC	Right-choroid-plexus	AirCavity	Skull	Vermis	Pons	CSF-ExtraCerebral	Head-ExtraCerebral	ctx-lh-bankssts	ctx-lh-caudalanteriorcingulate	ctx-lh-caudalmiddlefrontal	ctx-lh-cuneus	ctx-lh-entorhinal	ctx-lh-fusiform	ctx-lh-inferiorparietal	ctx-lh-inferiortemporal	ctx-lh-isthmuscingulate	ctx-lh-lateraloccipital	ctx-lh-lateralorbitofrontal	ctx-lh-lingual	ctx-lh-medialorbitofrontal	ctx-lh-middletemporal	ctx-lh-parahippocampal	ctx-lh-paracentral	ctx-lh-parsopercularis	ctx-lh-parsorbitalis	ctx-lh-parstriangularis	ctx-lh-pericalcarine	ctx-lh-postcentral	ctx-lh-posteriorcingulate	ctx-lh-precentral	ctx-lh-precuneus	ctx-lh-rostralanteriorcingulate	ctx-lh-rostralmiddlefrontal	ctx-lh-superiorfrontal	ctx-lh-superiorparietal	ctx-lh-superiortemporal	ctx-lh-supramarginal	ctx-lh-frontalpole	ctx-lh-temporalpole	ctx-lh-transversetemporal	ctx-lh-insula	ctx-rh-bankssts	ctx-rh-caudalanteriorcingulate	ctx-rh-caudalmiddlefrontal	ctx-rh-cuneus	ctx-rh-entorhinal	ctx-rh-fusiform	ctx-rh-inferiorparietal	ctx-rh-inferiortemporal	ctx-rh-isthmuscingulate	ctx-rh-lateraloccipital	ctx-rh-lateralorbitofrontal	ctx-rh-lingual	ctx-rh-medialorbitofrontal	ctx-rh-middletemporal	ctx-rh-parahippocampal	ctx-rh-paracentral	ctx-rh-parsopercularis	ctx-rh-parsorbitalis	ctx-rh-parstriangularis	ctx-rh-pericalcarine	ctx-rh-postcentral	ctx-rh-posteriorcingulate	ctx-rh-precentral	ctx-rh-precuneus	ctx-rh-rostralanteriorcingulate	ctx-rh-rostralmiddlefrontal	ctx-rh-superiorfrontal	ctx-rh-superiorparietal	ctx-rh-superiortemporal	ctx-rh-supramarginal	ctx-rh-frontalpole	ctx-rh-temporalpole	ctx-rh-transversetemporal	ctx-rh-insula
0	30	219.09814453125	425.19854736328125	602.0916748046875	880.1419677734375	820.781982421875	990.953369140625	338.0338134765625	580.7015991210938	1099.1328125	418.11334228515625	186.20262145996094	1974.810302734375	740.989013671875	1290.288818359375	207.064697265625	420.15869140625	619.9478149414062	803.0962524414062	1043.506103515625	868.8369140625	213.30897521972656	1145.288818359375	789.787109375	596.6652221679688	759.421142578125	1420.837646484375	173.45755004882812	216.99293518066406	608.67919921875	513.108642578125	631.8060302734375	385.7308044433594	1181.934814453125	751.5595703125	1235.5074462890625	1201.84375	1375.140380859375	982.240478515625	730.8820190429688	827.124267578125	1313.0115966796875	831.1668090820312	1050.057373046875	1203.7637939453125	685.7028198242188	944.4773559570312	506.25732421875	780.6981201171875	1122.6326904296875	1155.587158203125	1345.1243896484375	1912.5347900390625	1023.5026245117188	903.1885375976562	1146.3211669921875	888.933349609375	1494.6514892578125	1062.658447265625	950.7295532226562	947.9759521484375	955.8909912109375	1021.9396362304688	1268.8299560546875	926.2131958007812	1965.9185791015625	1279.9854736328125	681.728515625	1571.0367431640625	772.4308471679688	996.87548828125	1446.2257080078125	628.874755859375	857.2464599609375	819.498291015625	1183.5045166015625	875.486083984375	903.498046875	1518.845703125	903.4910278320312	772.463623046875	834.6835327148438	1338.02783203125	854.9468994140625	887.0252075195312	1200.81201171875	2160.5048828125	1000.002685546875	1251.1610107421875	919.7825927734375	990.7315063476562	1279.0390625	1021.3427734375	958.8463745117188	960.486328125	954.7994384765625	984.0140991210938	449.25762939453125	728.3655395507812	1776.3017578125	1497.0921630859375
30	60	1501.535888671875	2607.353271484375	6013.05615234375	6681.626953125	7609.5205078125	8524.17578125	3246.91357421875	3653.314208984375	6310.30126953125	2712.532470703125	1494.0953369140625	8498.9189453125	4616.09716796875	11506.86328125	1460.8341064453125	2882.843505859375	5757.228515625	6203.22607421875	7661.50439453125	8058.32958984375	3370.484375	5236.1337890625	4172.107421875	8227.4912109375	5303.89794921875	14786.7451171875	1185.58251953125	1665.1292724609375	6761.888671875	4068.158935546875	2527.59912109375	3040.47314453125	8526.78515625	8994.580078125	10413.9130859375	9604.3291015625	7079.09765625	6857.16162109375	7133.83544921875	6872.08642578125	9631.900390625	8396.5361328125	8549.2216796875	8837.279296875	4829.34375	6793.7529296875	7238.29150390625	8570.3037109375	9244.759765625	9170.716796875	10787.7197265625	17899.947265625	8082.71923828125	8734.6103515625	8642.4775390625	9604.8642578125	10125.076171875	9456.3134765625	8954.056640625	8349.4951171875	6797.126953125	8686.67578125	5627.13525390625	5771.60791015625	13101.2783203125	8225.4462890625	8468.662109375	9244.275390625	9058.220703125	11777.126953125	5609.97021484375	6475.41845703125	7983.47265625	6367.21240234375	7624.60546875	9424.546875	7225.0966796875	9771.0986328125	5246.2734375	6309.48486328125	4942.01611328125	9215.064453125	9858.443359375	9512.591796875	8606.9248046875	17350.55859375	8590.3662109375	9021.3984375	7977.92041015625	8739.7685546875	9770.736328125	9090.34375	9071.0849609375	8993.34375	6593.5341796875	9120.7568359375	6883.59326171875	5584.20703125	16296.392578125	8320.28515625
60	90	3355.7333984375	5358.34130859375	12352.8056640625	14762.603515625	16934.748046875	17464.060546875	7542.033203125	7054.5068359375	12127.2021484375	7163.78173828125	1696.781982421875	16530.400390625	9391.4365234375	24100.693359375	3016.25927734375	6043.86181640625	11921.9541015625	13804.9501953125	14913.7431640625	15397.67578125	5884.3857421875	12326.4482421875	8789.150390625	16300.5546875	8609.3056640625	31180.59375	2200.423828125	3198.31982421875	16747.28515625	8250.9326171875	3611.01025390625	6117.80712890625	18390.1875	13540.4033203125	21069.60546875	22741.734375	16688.67578125	13355.6083984375	15652.888671875	13463.3876953125	16716.1015625	17266.23828125	18098.220703125	19135.037109375	9313.7314453125	14422.8974609375	13199.2578125	18175.69921875	20743.93359375	18206.755859375	21675.322265625	31525.419921875	18717.66796875	19737.2109375	19451.75390625	20373.703125	18816.720703125	21194.92578125	19725.587890625	18305.970703125	14126.1298828125	17894.642578125	14017.150390625	11858.5673828125	30479.439453125	13166.5986328125	17118.244140625	22362.765625	20708.638671875	24627.78515625	10514.298828125	13680.505859375	17464.783203125	14817.9306640625	20029.494140625	19188.298828125	14317.44921875	20378.80078125	11618.9248046875	14192.5	8923.376953125	19873.22265625	19019.927734375	17783.81640625	19854.994140625	36343.203125	18568.810546875	17181.865234375	17997.3984375	19572.27734375	19594.654296875	19995.279296875	20476.400390625	19413.703125	13596.2666015625	19511.896484375	16699.326171875	12613.7587890625	29341.501953125	15254.1884765625
90	120	5158.63818359375	9880.1728515625	18669.52734375	22822.341796875	24939.572265625	25558.49609375	9254.8935546875	10142.6318359375	18415.607421875	12960.9384765625	3300.9775390625	29848.08203125	14279.92578125	15466.1171875	4673.1044921875	9397.9609375	18646.59765625	21469.525390625	24062.787109375	26484.595703125	9720.6640625	17441.05078125	13421.923828125	22275.86328125	13762.1484375	28442.845703125	3418.225830078125	4890.16015625	21269.181640625	12236.21484375	4139.787109375	9290.3359375	27279.119140625	23517.724609375	34713.86328125	37377.765625	23827.361328125	21199.40625	25148.732421875	23063.779296875	26720.064453125	27804.904296875	26615.916015625	29164.228515625	17700.443359375	22813.576171875	20848.818359375	26802.078125	29680.34375	28918.8515625	33201.33203125	50942.31640625	30026.12109375	27545.357421875	29767.783203125	28169.44921875	26182.11328125	32581.6015625	30059.708984375	29387.224609375	21612.50390625	27370.283203125	19926.98046875	18449.927734375	46701.25390625	23524.111328125	27395.08984375	29579.580078125	32185.875	37183.05078125	14729.900390625	20493.056640625	28324.51171875	23682.666015625	30146.630859375	30713.890625	21835.54296875	29627.35546875	18689.966796875	23746.49609375	19463.072265625	31870.69140625	30273.35546875	30349.279296875	31018.8359375	52489.31640625	31253.513671875	28151.513671875	28072.51171875	31955.796875	30949.734375	32024.74609375	30723.015625	30604.6875	21631.78515625	30121.755859375	25952.923828125	17902.34375	40649.32421875	20229.865234375
120	150	5833.2822265625	11696.3525390625	21962.490234375	25580.0078125	32492.919921875	31466.947265625	11864.4345703125	11557.9375	21667.091796875	12200.6650390625	2733.82470703125	25044.630859375	15757.2060546875	20888.171875	5535.1455078125	11172.23828125	21404.490234375	25130.962890625	28166.96875	34097.359375	10215.912109375	20775.92578125	15347.1689453125	15418.296875	16028.947265625	41976.5234375	3641.4716796875	5462.744140625	28210.9375	15353.4697265625	2810.4140625	10636.6015625	32991.921875	28061.751953125	39974.3828125	43341.4375	24558.564453125	25957.15234375	31707.9140625	27946.61328125	34308.7109375	33859.75	31908.693359375	33696.19140625	20775.66796875	29090.21484375	25703.501953125	36908.65625	37316.3828125	37270.734375	41888.453125	65720.3125	39230.2578125	32133.205078125	35762.84375	35947.57421875	35286.53125	39632.07421875	37762.23046875	36499.265625	26461.5859375	32157.138671875	21117.880859375	21206.115234375	44333.421875	24075.005859375	35379.8046875	33236.7265625	41663.69140625	43484.171875	13898.662109375	25587.408203125	34538.0078125	29356.041015625	31547.80859375	37413.2265625	26176.029296875	37014.11328125	21704.912109375	26938.30078125	20265.59765625	38150.84765625	36950.3828125	35607.40625	35912.8359375	64697.2578125	39099.1796875	33964.3671875	34520.7734375	36856.75390625	34637.42578125	38779.6484375	37883.35546875	38412.765625	26341.150390625	36205.3203125	29509.513671875	19881.158203125	44277.84375	22727.28515625
150	180	6228.26123046875	11527.7392578125	21693.841796875	26749.80078125	32311.67578125	32228.849609375	10683.4833984375	10158.599609375	19622.462890625	14093.798828125	1243.737548828125	31411.25390625	16357.4765625	23862.7734375	5809.8212890625	10790.5791015625	21275.943359375	24512.849609375	29284.728515625	31385.646484375	9558.712890625	19594.265625	14761.2529296875	23131.568359375	16348.26171875	44718.296875	3182.14111328125	5566.28955078125	27441.912109375	15246.19921875	2114.268310546875	10714.947265625	32737.232421875	31439.267578125	40669.2890625	39505.5859375	22280.951171875	24617.9140625	30719.91796875	28381.63671875	31588.822265625	33528.078125	31194.34765625	31940.30078125	19413.17578125	28379.67578125	27732.89453125	36226.1875	36871.53125	37695.76953125	40909.12109375	64903.37890625	38063.95703125	30667.279296875	34251.9140625	36782.66015625	29489.01171875	40070.859375	37014.81640625	36783.953125	27143.052734375	32242.736328125	21353.0546875	21946.552734375	46334.796875	26055.794921875	32053.080078125	32271.322265625	39690.1328125	42811.7265625	15868.865234375	24172.7890625	35471.32421875	28679.921875	32120.0078125	37061.66015625	26021.01171875	34214.67578125	22824.62890625	27924.19921875	21978.28515625	36175.3828125	36212.84375	35565.984375	36342.6328125	60343.29296875	38756.15234375	35688.91015625	34042.23828125	37972.70703125	33764.78515625	38486.75	38214.44921875	39424.88671875	25845.521484375	35892.0703125	35319.40625	19746.517578125	45296.09375	24372.6640625
180	240	6320.87646484375	10831.9248046875	20965.0078125	26120.564453125	29734.4921875	28772.53125	12505.1181640625	11441.69140625	19149.234375	15186.4189453125	1307.37451171875	29577.484375	15383.7255859375	22456.33984375	5864.93798828125	11027.7880859375	20546.8359375	24576.83984375	26943.453125	30050.037109375	10497.24609375	18159.421875	17311.60546875	23306.96484375	17263.66796875	26186.455078125	2864.83349609375	5608.83203125	26880.6328125	15646.990234375	1464.0400390625	10448.390625	28031.78515625	28207.533203125	39521.91796875	37465.09375	24630.646484375	24440.0390625	31470.107421875	27093.416015625	29916.521484375	31789.23828125	29639.287109375	30966.77734375	19706.669921875	28210.083984375	24298.060546875	36385.32421875	34855.79296875	36016.0859375	37486.59765625	61548.22265625	35426.5625	29071.353515625	34550.87890625	34585.87109375	32286.259765625	38452.91796875	36564.66796875	35792.203125	26070.681640625	31137.099609375	21085.76171875	21950.431640625	46985.66015625	24161.375	31928.55859375	31530.421875	38879.56640625	41449.7265625	15484.2451171875	24234.3984375	33731.265625	28427.484375	31653.1484375	36593.8046875	24743.994140625	33021.23828125	20192.146484375	27451.37890625	19850.46875	37102.81640625	35475.09375	33664.359375	35936.32421875	55498.2265625	37918.4453125	33431.4921875	34322.81640625	35475.484375	31618.322265625	37546.546875	36391.87890625	37558.62890625	25005.458984375	34380.62109375	30850.53515625	18722.04296875	40757.171875	22868.5703125
240	300	6474.6787109375	10709.0927734375	19798.40234375	24461.525390625	28524.443359375	29890.51953125	12136.390625	11163.7353515625	17611.185546875	15580.7177734375	651.0816040039062	20966.353515625	15381.7333984375	20236.37109375	6049.8115234375	9694.8583984375	19673.705078125	21859.94921875	26430.78125	28675.89453125	10418.1455078125	17838.2265625	15732.4541015625	24634.587890625	17298.875	24689.861328125	2507.459228515625	5742.5615234375	23026.8828125	15057.0556640625	892.8790893554688	10223.498046875	27691.84375	28393.15234375	37074.46484375	37296.97265625	25733.94921875	23832.287109375	28321.494140625	26291.7578125	28658.353515625	29172.72265625	27265.818359375	28758.017578125	18374.322265625	27097.71484375	23626.17578125	33394.109375	32153.80078125	32669.501953125	35611.3515625	53674.94140625	33536.96875	29392.62109375	32755.845703125	31864.044921875	28686.96484375	35635.35546875	34473.8046875	34459.296875	24231.294921875	29862.263671875	16848.89453125	21651.830078125	40896.8046875	22797.826171875	29007.314453125	28499.6796875	35300.4296875	36852.7578125	14754.6611328125	23562.12890625	32567.837890625	27689.685546875	29781.4453125	33313.5234375	22849.8984375	30974.197265625	20669.21875	26243.935546875	19177.244140625	34174.40234375	31325.201171875	30220.357421875	35219.68359375	48284.82421875	34542.46875	29735.294921875	31385.755859375	34146.84765625	30869.3671875	34254.6171875	34087.515625	35467.7734375	24070.283203125	31745.015625	27909.634765625	18566.716796875	36795.00390625	22400.896484375
300	360	6736.294921875	10532.388671875	18142.537109375	22877.609375	25562.029296875	27471.876953125	12976.2138671875	10277.7529296875	16872.537109375	16039.1875	844.7572021484375	28620.111328125	14772.4521484375	11159.787109375	6228.638671875	10729.966796875	17898.263671875	21874.0703125	25123.23828125	27104.974609375	9998.3427734375	17438.552734375	15960.5107421875	20920.74609375	15734.44921875	11498.638671875	2322.923583984375	5827.68408203125	20616.287109375	14018.38671875	550.5957641601562	10014.2216796875	26178.78125	26583.81640625	32524.923828125	32806.31640625	25296.67578125	22435.21875	26522.11328125	25402.09765625	28036.484375	26955.595703125	25892.52734375	26010.125	16029.2060546875	25620.248046875	24400.076171875	30357.0078125	28600.046875	30304.712890625	31582.662109375	43143.16796875	30584.275390625	24733.341796875	29594.181640625	29049.322265625	24852.50390625	33001.26953125	32212.337890625	32426.00390625	22847.53125	27499.169921875	15951.71484375	20405.318359375	36603.0546875	22682.904296875	25323.755859375	27660.634765625	32167.01953125	33914.578125	14912.0068359375	22677.263671875	29827.91015625	25832.84375	28429.33984375	30716.884765625	22404.11328125	29843.447265625	17802.60546875	25000.10546875	19339.576171875	31811.76953125	27859.078125	28817.53125	31920.833984375	41544.84375	32232.4140625	26972.875	29912.52734375	30661.5546875	30363.984375	31786.95703125	31910.990234375	32826.89453125	23063.685546875	28931.67578125	26145.4609375	17203.328125	29806.658203125	21695.662109375
360	480	6937.99755859375	10338.771484375	16110.8916015625	21042.4921875	22727.357421875	23590.720703125	13326.1337890625	9861.92578125	15994.2802734375	14994.77734375	340.08941650390625	21219.6015625	14939.859375	4678.76611328125	6410.74853515625	9518.478515625	16116.052734375	20800.763671875	21639.2578125	23781.375	12139.66015625	14736.373046875	15514.669921875	23372.650390625	14349.2470703125	16590.40625	2025.501953125	5904.69921875	19080.310546875	13318.62109375	213.65179443359375	9330.98828125	21831.912109375	21614.208984375	27489.388671875	28663.73046875	23333.4296875	20776.71875	22878.6484375	23000.220703125	22293.65234375	23254.955078125	22546.607421875	23360.759765625	14284.998046875	22641.02734375	23196.1484375	26921.677734375	25343.341796875	25158.728515625	28360.751953125	37243.2109375	26503.107421875	23400.578125	26250.115234375	26169.837890625	23967.96875	28877.15625	27696.212890625	27885.986328125	20973.28125	24036.29296875	14249.123046875	19598.0546875	33035.73046875	20548.90234375	23714.369140625	25034.474609375	28250.14453125	29119.486328125	13665.083984375	21075.591796875	26774.904296875	23209.474609375	25312.435546875	27570.33984375	19005.111328125	24636.419921875	15405.5986328125	22271.8203125	17886.80078125	28811.794921875	25613.564453125	25988.240234375	27486.572265625	37088.8125	28217.19140625	25062.58984375	26440.609375	27394.220703125	25985.447265625	28120.056640625	28082.328125	29131.62109375	20408.912109375	26260.072265625	24157.759765625	15836.9931640625	26611.470703125	19028.275390625
480	600	7049.5546875	9360.6298828125	13993.41796875	18504.431640625	18591.740234375	19524.591796875	12293.388671875	9192.873046875	14150.330078125	13605.802734375	49.12826156616211	21631.7734375	13378.8056640625	6957.4404296875	6516.34228515625	9222.869140625	13810.279296875	16900.2265625	18580.390625	19426.375	11740.4677734375	12860.2802734375	14530.4990234375	20065.232421875	14039.90625	10567.3115234375	1931.0308837890625	6057.48974609375	16218.267578125	12376.14453125	26.810991287231445	8769.0439453125	18711.056640625	21016.404296875	23065.431640625	23911.814453125	20731.548828125	17937.56640625	19479.9140625	19839.966796875	18491.7265625	20026.994140625	19368.31640625	18711.296875	12228.2421875	19324.099609375	19152.552734375	22941.642578125	21965.412109375	21551.91796875	23518.20703125	27710.515625	22205.111328125	19056.029296875	22386.296875	21926.25	21010.44140625	24136.494140625	23220.1015625	23655.48828125	17850.7265625	19885.556640625	11455.1494140625	18233.19140625	26818.1796875	17737.7734375	19688.341796875	20549.23046875	24685.697265625	24711.982421875	13612.98828125	18260.095703125	22673.22265625	20397.02734375	21607.25	23519.408203125	15642.6142578125	19734.537109375	11816.9755859375	19455.521484375	14103.0458984375	23579.3203125	20646.900390625	21819.236328125	22869.908203125	27380.21875	23474.26953125	22140.4765625	22596.822265625	23006.654296875	23049.375	23702.21875	23741.224609375	24899.46875	17444.48046875	22818.0234375	20896.146484375	13418.67578125	21942.33984375	17338.275390625
600	900	7357.35498046875	9143.66015625	11085.4599609375	15457.6767578125	15106.736328125	16359.2255859375	12076.2734375	8695.63671875	11036.8203125	13288.259765625	-377.9497985839844	18893.466796875	13008.92578125	4458.736328125	6939.4765625	9119.638671875	10955.080078125	14723.83203125	13972.271484375	16106.0634765625	10459.59765625	10883.26953125	13809.58984375	15519.0546875	12632.076171875	9141.318359375	1466.851318359375	6336.45556640625	13868.3076171875	11098.3515625	-43.095088958740234	8226.115234375	14783.5048828125	17422.8984375	18323.025390625	19507.583984375	17912.12890625	15527.5693359375	15741.2529296875	16992.609375	16161.74609375	16216.6806640625	15480.8681640625	15271.470703125	10139.3447265625	15976.953125	16762.24609375	19065.744140625	16488.0703125	17138.56640625	19506.392578125	20410.5	17584.197265625	16045.583984375	17949.03515625	18099.857421875	17630.62890625	18998.740234375	19036.16015625	18867.67578125	14790.1708984375	16300.427734375	9881.9248046875	16033.5556640625	21174.35546875	15666.6767578125	15130.724609375	17693.048828125	19307.349609375	20164.74609375	11942.02734375	15681.2890625	18040.44140625	17104.263671875	16867.708984375	19703.880859375	12577.90234375	16484.921875	9496.23046875	15994.5380859375	14234.580078125	20135.591796875	16484.45703125	18057.431640625	18879.2421875	20914.2265625	18523.09375	16446.248046875	18179.076171875	18535.36328125	17775.630859375	18717.58984375	19187.490234375	20188.84375	14697.1142578125	18226.294921875	16695.5078125	13839.5146484375	16854.49609375	14994.94921875
900	1200	7553.37255859375	8400.51953125	8871.9892578125	12458.4541015625	11804.14453125	12384.3046875	12601.0400390625	7262.6220703125	8822.9521484375	10696.7890625	-268.4146423339844	13189.5771484375	11156.9248046875	5155.26904296875	7111.38232421875	8382.5732421875	8733.7353515625	12234.564453125	10214.861328125	12243.625	10916.404296875	8599.0458984375	11831.78125	15081.9130859375	11319.138671875	2614.876220703125	974.4987182617188	6631.43212890625	10643.8603515625	10117.4951171875	80.80350494384766	7766.84375	12580.1884765625	14064.802734375	14503.7216796875	14528.9521484375	16220.158203125	13354.181640625	12148.5712890625	14261.0830078125	12497.6015625	12720.05078125	12806.2626953125	11784.8955078125	7540.05517578125	13131.654296875	15597.8759765625	14691.8017578125	13437.1875	13502.40234375	14941.62890625	15120.755859375	13624.4267578125	13616.7421875	14641.109375	13914.2763671875	14274.5107421875	14944.423828125	15210.390625	15135.4609375	11932.8984375	12957.2109375	7754.87646484375	13146.015625	17192.9921875	12633.8173828125	12423.0048828125	13776.3447265625	15219.0556640625	16648.908203125	10380.017578125	12790.42578125	14365.4306640625	14546.3662109375	14068.6142578125	16201.9052734375	10058.498046875	12956.068359375	7327.080078125	12915.2353515625	10900.466796875	15997.43359375	13117.8232421875	14794.6201171875	14755.5791015625	16872.392578125	14817.01171875	13561.6142578125	14666.6962890625	15052.603515625	13515.8388671875	15295.7744140625	15770.4228515625	16253.328125	11819.7060546875	14460.1923828125	13138.400390625	11938.8134765625	15874.1748046875	12285.693359375
1200	1500	7640.8330078125	8474.0224609375	7433.66650390625	10035.3916015625	9043.2314453125	9769.5283203125	11590.5439453125	6261.51416015625	7617.17431640625	9695.08203125	-441.7552185058594	11360.6298828125	9764.9189453125	8280.8349609375	7249.4677734375	7966.98681640625	7271.70166015625	10028.4990234375	7963.80810546875	9831.50390625	9964.529296875	7584.3798828125	10739.763671875	9305.322265625	9788.431640625	6456.39111328125	855.2674560546875	6836.41162109375	8660.55859375	9389.953125	329.8202819824219	7519.3515625	10407.9658203125	12287.2880859375	12411.115234375	12894.7802734375	14618.4931640625	11481.0166015625	10156.7236328125	12388.220703125	10558.802734375	10691.7021484375	10653.1435546875	10441.7939453125	6210.07958984375	11436.48828125	13590.7265625	12480.2607421875	11200.2919921875	10547.0673828125	12941.6123046875	13058.5830078125	11321.212890625	11484.30078125	12040.759765625	11940.1904296875	12336.099609375	12581.4619140625	12999.1494140625	12451.19921875	9927.53125	10837.380859375	5527.0419921875	11748.7861328125	14690.94140625	11159.5126953125	11810.6826171875	11051.2646484375	13500.927734375	14823.1103515625	8501.7255859375	11621.4033203125	12057.359375	12704.48046875	11760.193359375	13998.28125	8627.189453125	11400.37109375	6203.68310546875	10568.2158203125	8873.158203125	13304.859375	11462.5712890625	11881.3466796875	12778.55859375	13195.91015625	11937.6826171875	11576.3759765625	11804.4345703125	13001.00390625	12920.091796875	12708.8876953125	13246.615234375	13768.751953125	9812.59375	12118.970703125	11467.51171875	9900.4599609375	12482.3203125	10816.2353515625
1500	1800	7660.07470703125	7524.35888671875	6497.9267578125	8940.439453125	7088.89111328125	8397.8291015625	9234.296875	5489.15576171875	6056.9140625	7774.08349609375	108.13961029052734	6578.2587890625	9115.8310546875	6267.0576171875	7253.96923828125	7396.02001953125	6380.4755859375	8562.1728515625	7378.41455078125	8665.509765625	7950.29150390625	6291.16650390625	8009.2880859375	8387.41015625	8880.4111328125	1974.56787109375	451.2535705566406	6953.59423828125	7115.27099609375	8444.021484375	676.4435424804688	7390.27490234375	8476.3759765625	10036.8720703125	10734.431640625	11474.5947265625	13022.87109375	10405.9462890625	8874.8505859375	11351.115234375	9924.765625	9383.5224609375	9553.6953125	9119.9375	5262.47900390625	9681.1552734375	11273.2265625	11503.314453125	9449.4755859375	10559.46875	10617.4169921875	9425.796875	9648.6259765625	9254.080078125	10654.154296875	11149.9111328125	11031.6357421875	10893.6044921875	11060.44140625	11024.8203125	8771.357421875	9563.7177734375	4496.03369140625	10167.16796875	13200.6181640625	10475.298828125	9994.1494140625	9844.4228515625	11341.642578125	12544.12109375	9153.263671875	10530.3271484375	10606.197265625	11878.0966796875	11020.494140625	12332.02734375	6783.26708984375	10194.6416015625	6198.353515625	8938.8037109375	7758.4658203125	12443.71484375	10450.1142578125	11814.9755859375	11296.0	12449.00390625	11186.265625	10412.291015625	10548.9150390625	11685.8310546875	10885.208984375	11301.2294921875	11783.05078125	11877.96484375	8729.3046875	10725.0361328125	9200.005859375	8436.3564453125	10629.1982421875	9522.8720703125
1800	2100	7613.2861328125	7246.27099609375	5640.2734375	7492.1474609375	6390.12158203125	7086.08251953125	9368.71484375	4554.90966796875	5262.5966796875	7408.09423828125	25.53154754638672	6552.07373046875	7993.37841796875	4722.9140625	7219.044921875	7076.21826171875	5461.87939453125	7440.45947265625	5535.314453125	7466.8740234375	7731.4853515625	4938.701171875	7605.9521484375	6545.16259765625	8341.521484375	4488.20654296875	364.1711120605469	6999.78076171875	6824.93994140625	8079.29345703125	917.7177124023438	7141.68017578125	8152.734375	8230.30859375	9296.75	10374.81640625	11787.4072265625	9878.1220703125	8059.72705078125	10710.1591796875	8754.3046875	8418.5126953125	8240.0166015625	8838.43359375	4439.71728515625	8579.1865234375	12001.990234375	9277.119140625	9129.66015625	9487.6826171875	9827.3857421875	8735.837890625	8472.7998046875	9129.1826171875	9192.0791015625	9404.7607421875	9507.97265625	9665.962890625	9921.6787109375	9698.7353515625	7846.03955078125	8696.955078125	3103.218994140625	9375.63671875	12104.7744140625	9011.5654296875	9211.52734375	9703.2060546875	10320.0068359375	10974.021484375	7226.1806640625	9911.71875	9338.837890625	10581.064453125	9586.7119140625	10928.6240234375	6627.056640625	9303.748046875	6213.1083984375	8316.6279296875	6668.7626953125	10223.03515625	9563.373046875	10441.501953125	9697.0947265625	12325.1259765625	9341.3994140625	9117.369140625	9243.9580078125	10604.84765625	9845.0703125	9764.154296875	10407.1953125	10662.5078125	7669.17236328125	9555.6513671875	7965.76708984375	7280.7412109375	10578.91796875	8067.42138671875
2100	2400	7514.98046875	6764.958984375	4994.1953125	6724.68798828125	5269.66064453125	6553.0888671875	6916.53271484375	4641.9736328125	5256.6474609375	5621.4892578125	-301.3122253417969	3960.937744140625	7394.9482421875	7788.6796875	7066.40625	6506.4072265625	4870.6591796875	6752.5234375	5078.72216796875	6211.4560546875	6582.06298828125	5318.35888671875	6459.02587890625	5680.2314453125	6789.79150390625	3995.17236328125	237.6676483154297	7039.318359375	6908.7802734375	7207.9306640625	967.958251953125	6927.328125	6686.24560546875	8764.6064453125	8112.4287109375	8798.400390625	11410.9775390625	9063.931640625	7638.64404296875	10203.8310546875	8409.9521484375	7689.85205078125	7443.6943359375	8162.8369140625	4437.16015625	7850.443359375	8860.626953125	8225.4716796875	7831.97314453125	8356.794921875	9529.0205078125	7791.7958984375	7431.37255859375	7088.39599609375	8319.1025390625	9084.66015625	8722.8427734375	8745.4580078125	8995.1630859375	9051.646484375	7359.37548828125	7678.7509765625	2120.767333984375	8828.0625	10085.7861328125	8428.50390625	8963.193359375	8832.2890625	9222.9599609375	10410.1826171875	7845.4248046875	9381.6982421875	8990.19140625	9970.2890625	6759.74169921875	10539.927734375	6033.0537109375	9147.1826171875	4896.4716796875	7475.166015625	7109.95166015625	9410.0107421875	8049.93798828125	9523.0498046875	9346.236328125	10657.6689453125	8493.59765625	9132.5791015625	8437.5927734375	9840.60546875	9016.67578125	9158.84765625	9479.2724609375	9900.5634765625	6978.00830078125	8919.0859375	7804.2080078125	6556.24072265625	9263.361328125	7884.99853515625
