frame_start	frame_end	parasubiculum	HATA	fimbria	hippocampal_fissure	HP_tail	presubiculum-head	presubiculum-body	subiculum-head	subiculum-body	CA1-head	CA1-body	CA3-head	CA3-body	CA4-head	CA4-body	GC-ML-DG-head	GC-ML-DG-body	molecular_layer_HP-head	molecular_layer_HP-body	Lateral-nucleus	Basal-nucleus	Central-nucleus	Medial-nucleus	Cortical-nucleus	Accessory-Basal-nucleus	Corticoamygdaloid-transitio	Anterior-amygdaloid-area-AAA	Paralaminar-nucleus
0	30	799.23882	1353.66718	183.73221	501.51303	542.84459	645.65549	338.89944	548.23009	331.46911	477.09808	291.65172	580.99975	288.33572	343.64008	278.08238	424.74745	270.17959	479.54766	299.90733	274.24581	501.91089	253.79471	304.63754	398.43101	649.95478	878.59242	1010.40789	552.03033
30	60	3002.35024	7571.12488	4345.99778	5033.02499	5280.42621	4155.51919	4995.45436	5006.21971	5665.43723	5004.0885	4852.56976	5682.97883	4722.18126	5933.45403	4780.86033	5972.38768	4846.13069	5193.61385	5028.10238	4186.6287	4351.62014	4779.23909	4920.86715	5238.65329	5313.38827	5349.81984	5185.53346	4094.19187
60	90	6746.97719	10247.84227	9012.53098	11009.22787	9611.9721	9329.06403	10773.53912	9977.11046	11912.34416	10137.10184	11008.34146	11470.29558	8996.53271	11011.88574	10220.74805	10954.75611	10246.18092	10423.89507	10495.0186	9211.5303	8368.60991	10048.31412	9278.47201	11259.4903	9902.50509	9253.61306	10238.31879	9235.98225
90	120	10921.74731	13058.30132	15735.32527	14473.74462	17023.56688	13183.83229	15351.56053	15027.89373	17532.15151	13577.0955	13855.67981	14163.80736	14549.28647	14316.33503	15980.85702	14627.45444	15918.97217	14063.07506	15511.61136	14121.50964	13004.69654	14200.83461	17334.60034	16580.64066	14099.46412	13324.36561	12249.40918	11529.12487
120	150	13800.65404	19431.61297	17253.58639	18081.32707	19381.72915	14795.16259	17830.88659	14939.57569	20845.92411	17465.60405	20390.78097	19883.8678	18006.42959	16930.75463	19859.27211	17726.66019	19622.29502	16582.42904	19257.41055	16070.28974	17184.14586	17640.41286	19670.01807	20961.98312	19674.92158	18180.84246	15766.49142	13307.63031
150	180	13178.5196	22128.83575	18844.1794	17591.96796	19593.69622	16635.76926	17590.45626	19467.03206	20046.04066	18232.90027	19537.63853	17844.80545	19470.90441	18556.11655	19401.00219	17363.91881	19353.93935	18703.9742	19085.40844	17883.43978	19918.62573	22212.97308	19298.0752	22726.85435	24910.38523	20545.39042	16728.45331	16599.47633
180	240	12468.30073	19078.19529	20171.502	18456.98282	21482.63816	15394.27657	17337.02222	18749.51727	21857.9903	18991.05737	21032.4702	20902.05406	20756.0122	19689.75247	21377.41639	19277.20645	21073.76353	19131.621	20338.48602	19505.39169	18987.18942	20664.01403	19396.41325	22507.64362	22259.66663	17661.76008	18977.9967	15297.38313
240	300	15089.55594	17257.50631	21346.1561	19789.12543	18590.75053	17343.47115	16961.89499	17950.47214	22833.8911	18550.87771	21775.70841	20685.52374	21093.45531	20349.10358	23046.46882	19677.39784	22629.4464	19579.65109	21428.27794	20199.37912	19363.97597	18039.3021	15281.68555	17669.2696	20178.76596	16505.04743	17370.586	16914.95508
300	360	13807.03487	16657.79314	18431.8595	17422.03268	19031.74063	15746.83293	16938.00365	16676.05247	20401.92188	17284.03038	18950.87871	17926.88488	18603.83803	17381.07959	19432.45403	17114.2402	19323.58584	17755.15642	18810.72322	17922.89562	18300.78528	17736.64574	15464.98381	17809.12165	19522.38098	16339.90134	17168.21234	16622.96594
360	480	10848.49141	15178.41706	17306.696	16389.2826	17612.17137	14012.37021	14845.00494	16504.17132	18694.47525	16542.53266	17387.68823	17135.70622	17124.46956	17883.61045	17797.32055	17189.68433	17695.0046	17064.53956	17152.34918	17547.36094	17140.56495	17416.41271	14751.72493	17933.448	18531.18071	15389.86954	15577.17877	14571.2277
480	600	10706.4038	14035.42589	16464.10153	14952.84303	15375.16556	12271.05994	13560.50671	15100.3934	17571.28729	15553.85496	16444.35758	14676.77221	16409.04374	15621.49823	17100.37011	15227.11214	16906.98833	15508.03161	16252.09937	16929.31465	15924.61582	14953.18047	13413.93872	16181.79691	17491.8393	15546.08933	13752.86868	14048.48606
600	900	9665.48864	12268.2587	13949.96475	13222.30882	12958.67904	11948.29159	12485.47224	13460.79544	14120.41647	13433.29812	13856.99864	13980.17853	13373.96581	13868.85404	13992.0933	13343.84683	13939.40795	13786.45304	13602.59296	15311.78019	14478.43251	12314.69238	11910.83553	12857.18586	14595.728	12707.18073	13368.0972	12980.71716
900	1200	9128.73589	10450.08512	11604.11355	11120.0105	11237.31485	10268.94362	10733.07368	11449.15015	12598.51807	11270.33787	12038.84471	10794.97181	11731.87042	11166.75321	12208.61738	10971.66937	12169.39086	11301.97405	11937.46213	12539.97937	11905.08185	10267.90414	10657.38249	11293.11724	12303.83333	11132.59251	11421.05399	10556.18466
1200	1500	9417.31758	8362.11332	10783.9625	10174.92936	9523.61166	10653.04574	9495.33732	10919.15945	10851.72486	10043.24541	10230.17868	9198.07608	10040.38332	10449.60368	10389.25724	10149.36994	10447.51285	10718.07626	10206.14106	11370.90635	10342.74979	9162.20501	9712.57699	9780.79907	9780.49767	8941.95806	10489.42807	10304.29901
1500	1800	7548.74274	7157.31053	8533.26431	8465.39513	7874.79159	9425.3456	8345.10243	9645.4474	9076.58343	8545.44635	9259.00789	7545.83394	8692.10844	8516.42547	8432.98068	8337.03524	8589.51293	8961.22407	8686.89575	9575.61086	8698.7807	7826.29535	8783.81559	8744.15948	8136.02334	7519.34063	8549.22794	8478.46922
1800	2100	6854.85291	7318.94066	9416.02429	7353.71412	7307.32782	7568.89428	7827.30889	8322.37715	8393.15474	7305.10197	8509.74157	6401.3319	8664.16334	7105.92683	8281.85639	7121.51695	8411.33223	7519.04852	8254.11911	8135.99977	7213.75769	8347.70299	9845.05452	9461.64535	7566.70303	7262.23157	7881.79645	6777.73784
2100	2400	6350.99124	6769.8699	8283.89559	6805.46458	6797.92246	6728.9619	6461.41621	7530.20584	7809.056	6718.42047	8155.25542	6107.9812	8825.65593	6431.63478	8188.19415	6551.84316	8113.68685	6754.05697	7907.20777	7089.71678	7241.42304	7266.84356	8225.57275	7828.75319	6860.87439	6383.48897	6686.17653	6659.71377
2400	2700	6674.49703	5710.28463	8400.69393	6018.01508	6294.31308	6406.75388	6155.19582	6944.7221	6952.25994	6347.41606	7903.02755	5308.99265	8005.2099	6061.1907	6954.8842	6116.45116	7188.10208	6266.07569	7131.22779	7368.78893	5806.91609	6381.07841	7833.1141	7170.65383	5510.78696	5468.45703	5523.64574	6375.97372
2700	3000	4853.91279	6612.62531	7514.95388	5701.05918	6205.37393	5949.15915	5587.01735	6332.07341	6264.25925	5434.99402	7100.23495	5679.02409	7571.61038	5838.48484	6618.20764	6028.3019	6694.68651	5421.29148	6565.96783	5824.69106	4648.9383	5605.7439	7008.61226	6270.93316	5002.62136	5370.51761	4657.5485	4197.56519
3000	3300	4777.50761	5672.60819	6420.93428	4993.48036	5738.69358	5065.92376	5507.25096	5734.52227	5688.1362	4993.22809	5807.78405	4933.51409	6755.43296	5014.28843	5804.93277	4910.21934	5838.53247	4953.38731	5780.14091	5810.25657	5288.5124	5584.92026	7482.06632	6826.945	5233.33227	5220.68168	4259.48768	4921.32466
3300	3600	5667.61104	6360.04128	7786.62755	5199.73156	5009.06213	5724.6181	5467.08781	5693.91668	5939.62346	5322.6034	6758.52005	4225.5178	6739.04851	4205.14721	6452.8109	4683.84655	6603.35149	5092.32591	6377.92153	4534.89595	4223.24542	5841.54482	6750.29346	6544.51892	4859.69057	4587.56547	3544.35888	4481.07148
3600	3900	4077.88534	5148.11054	6578.09487	5031.53801	5216.57707	5009.84207	5076.77357	5085.30865	5383.74403	5035.09697	5767.29611	4905.38421	6785.91586	4604.31403	6107.49823	4757.97567	5991.36562	5043.66601	5805.38899	4667.5034	3985.51781	5371.52438	7136.68652	7130.09576	5119.35952	5246.81003	3118.93194	4313.4234
3900	4200	3721.16806	5554.94603	6080.93721	3810.18678	4086.42542	4093.73907	4319.38675	4578.60253	4207.49704	4255.92657	4680.48051	3534.90669	5179.22374	3848.5209	4341.13205	3980.08496	4430.23317	4145.57495	4411.02056	4211.76891	3624.33076	6033.18676	7507.14372	7069.06601	4436.54025	4426.70146	3552.25547	3739.88686
4200	4500	4981.0237	5932.07027	5072.86974	3946.87939	4285.81898	4354.91695	4548.0996	3591.20807	4845.09056	4539.59905	5250.19353	3753.73925	5031.4815	3292.26934	4693.28049	3971.80104	4855.08948	3773.13885	4910.95211	4472.16622	3942.3184	5187.33691	4953.17086	4402.61683	4201.1844	3946.75736	3314.88349	3265.14223
4500	4800	3693.40314	5213.27463	5261.17026	3407.23111	4283.29182	4166.04803	3967.70456	3937.37675	4316.97792	3678.14914	5966.35151	3555.36687	5834.76855	2874.76097	4825.74824	3191.41818	4957.63483	3537.09455	5015.3249	3640.69905	3875.94018	6129.24563	5418.69147	6173.62158	3936.21199	4312.0487	2426.53794	3616.42794
4800	5100	3651.59634	5364.18541	4318.54947	2826.61601	4273.54589	3778.73599	2543.94757	3613.34066	3069.05255	3679.45573	4455.99189	2809.70655	4958.47334	2726.7112	3804.5662	2824.92413	3830.55149	3362.02621	3729.67057	2852.08643	2580.24091	3719.12865	3689.35748	3018.60788	3706.56853	4884.75921	2656.23796	3016.99521
5100	5400	2378.75119	5119.49929	4060.66448	3193.9896	4110.19132	3225.65838	2786.88566	3823.86638	3886.51272	3642.61053	5166.26986	3489.24037	4968.48275	3134.02775	3846.37521	3291.77906	3988.37255	3263.74493	4067.92781	3419.32158	4887.8082	4208.80255	4680.00364	5429.64396	5419.39984	5202.33634	4518.00841	3931.53959
5400	5700	2740.67634	6285.00387	5147.24566	2975.66293	5082.14977	2713.10511	3406.77158	2289.24386	3278.91407	3052.25631	4170.26102	3220.51969	5045.015	2352.73102	4288.27687	2779.86464	4233.13367	2543.42404	3878.66276	2876.36182	3222.56862	4446.54349	5094.67794	5242.76036	4325.40636	4002.88851	2821.24511	2089.4563
5700	6000	4460.22182	4196.95292	3043.49564	3242.49805	2830.12561	3593.73446	2504.98328	3433.01611	4463.71788	4008.11583	4698.00786	2263.56671	4790.79758	2574.48105	4100.0613	3043.98395	4022.51859	3569.18793	4037.71795	3592.47638	3138.24604	3533.07369	4643.20072	5392.30929	3664.7489	4383.44426	1952.04911	3866.32072
6000	6300	5498.47381	5272.82249	5352.85583	4362.31539	3359.65979	5392.08975	2932.66742	3022.0464	3863.93099	4003.04747	4466.85713	3612.37332	6394.77006	3812.90733	5337.53031	3875.8993	5128.56964	3961.46285	4755.33616	2541.35184	3093.09142	5368.32298	3972.75016	4923.87047	3872.3813	4257.04703	3761.24761	3238.14513
6300	6600	3990.1038	4107.28996	4182.21706	3911.15839	4317.5146	4158.84101	3082.47223	3921.27881	3191.93714	3506.3752	5201.66464	4584.88013	5074.79813	3914.33627	4450.30785	3696.18974	4155.0327	3611.7734	4026.21888	2550.20447	2722.83921	2455.99898	3038.92141	3267.76205	3777.04728	3905.52194	1834.72062	3285.34293
6600	6900	3332.66207	5329.70838	3908.33669	3193.15588	4728.67644	3901.55553	2786.46231	2464.34677	4722.83214	4202.9722	3581.14845	3476.67125	3616.37621	3150.08579	3546.86171	3375.67842	3682.93939	3798.87695	3545.71569	2154.83337	1765.56512	2849.7568	5064.98503	4825.49786	4353.04445	5962.95853	2045.61422	2457.84726
6900	7200	2096.66842	3992.56825	4232.71395	2853.89644	3090.99307	3392.15221	2288.14718	3500.0401	3363.61527	2254.83932	4244.78407	1906.36649	3899.44045	1572.71304	3636.1114	1719.09724	3714.10998	2561.70517	3573.2925	2587.02114	3711.13147	4115.587	3255.98418	4576.49833	4649.31365	3255.41536	1899.41685	3265.73919
