frame_start	frame_end	Left-Cerebral-White-Matter	Left-Cerebellum-White-Matter	Left-Cerebellum-Cortex	Left-Thalamus	Left-Caudate	Left-Putamen	Left-Pallidum	Brain-Stem	Left-Hippocampus	Left-Amygdala	CSF	Left-Accumbens-area	Left-VentralDC	Left-choroid-plexus	Right-Cerebral-White-Matter	Right-Cerebellum-White-Matter	Right-Cerebellum-Cortex	Right-Thalamus	Right-Caudate	Right-Putamen	Right-Pallidum	Right-Hippocampus	Right-Amygdala	Right-Accumbens-area	Right-VentralDC	Right-choroid-plexus	AirCavity	Skull	Vermis	Pons	CSF-ExtraCerebral	Head-ExtraCerebral	ctx-lh-bankssts	ctx-lh-caudalanteriorcingulate	ctx-lh-caudalmiddlefrontal	ctx-lh-cuneus	ctx-lh-entorhinal	ctx-lh-fusiform	ctx-lh-inferiorparietal	ctx-lh-inferiortemporal	ctx-lh-isthmuscingulate	ctx-lh-lateraloccipital	ctx-lh-lateralorbitofrontal	ctx-lh-lingual	ctx-lh-medialorbitofrontal	ctx-lh-middletemporal	ctx-lh-parahippocampal	ctx-lh-paracentral	ctx-lh-parsopercularis	ctx-lh-parsorbitalis	ctx-lh-parstriangularis	ctx-lh-pericalcarine	ctx-lh-postcentral	ctx-lh-posteriorcingulate	ctx-lh-precentral	ctx-lh-precuneus	ctx-lh-rostralanteriorcingulate	ctx-lh-rostralmiddlefrontal	ctx-lh-superiorfrontal	ctx-lh-superiorparietal	ctx-lh-superiortemporal	ctx-lh-supramarginal	ctx-lh-frontalpole	ctx-lh-temporalpole	ctx-lh-transversetemporal	ctx-lh-insula	ctx-rh-bankssts	ctx-rh-caudalanteriorcingulate	ctx-rh-caudalmiddlefrontal	ctx-rh-cuneus	ctx-rh-entorhinal	ctx-rh-fusiform	ctx-rh-inferiorparietal	ctx-rh-inferiortemporal	ctx-rh-isthmuscingulate	ctx-rh-lateraloccipital	ctx-rh-lateralorbitofrontal	ctx-rh-lingual	ctx-rh-medialorbitofrontal	ctx-rh-middletemporal	ctx-rh-parahippocampal	ctx-rh-paracentral	ctx-rh-parsopercularis	ctx-rh-parsorbitalis	ctx-rh-parstriangularis	ctx-rh-pericalcarine	ctx-rh-postcentral	ctx-rh-posteriorcingulate	ctx-rh-precentral	ctx-rh-precuneus	ctx-rh-rostralanteriorcingulate	ctx-rh-rostralmiddlefrontal	ctx-rh-superiorfrontal	ctx-rh-superiorparietal	ctx-rh-superiortemporal	ctx-rh-supramarginal	ctx-rh-frontalpole	ctx-rh-temporalpole	ctx-rh-transversetemporal	ctx-rh-insula
0	30	428.5516662597656	395.6959533691406	421.65802001953125	613.7378540039062	431.7807312011719	802.983154296875	671.970458984375	538.6224975585938	427.74713134765625	335.9109191894531	397.49365234375	519.9724731445312	594.1744995117188	267.6487731933594	479.5457763671875	447.6422119140625	493.8642578125	505.05120849609375	508.8601379394531	612.2315063476562	340.4388732910156	645.6920776367188	372.54986572265625	772.1927490234375	525.9644165039062	413.6029052734375	66.23407745361328	105.98845672607422	521.1522216796875	344.5201110839844	418.3048400878906	71.995361328125	295.21435546875	557.81201171875	376.9519348144531	397.53570556640625	379.32061767578125	438.7677307128906	282.7557678222656	173.61520385742188	339.13250732421875	321.8359375	371.3642578125	523.9611206054688	446.344970703125	175.79074096679688	437.76885986328125	465.164306640625	289.8475646972656	72.48633575439453	244.55398559570312	377.5645446777344	194.48434448242188	420.76580810546875	279.4037780761719	417.9830017089844	542.4727172851562	302.21661376953125	488.2922668457031	253.67864990234375	278.915771484375	225.47610473632812	33.496429443359375	142.397216796875	1089.88427734375	701.8042602539062	605.1041259765625	959.5162963867188	400.9521789550781	574.9627685546875	779.763916015625	562.89013671875	409.5726623535156	327.48834228515625	482.2488708496094	420.5757751464844	434.5694580078125	743.660888671875	698.3095703125	425.29541015625	393.77069091796875	614.0635986328125	714.53369140625	310.6458435058594	463.6788330078125	768.5596923828125	354.1955261230469	749.35888671875	449.8431091308594	536.754638671875	837.70849609375	498.4935302734375	552.23828125	335.3373107910156	577.4742431640625	452.8408508300781	42.43785858154297	152.85484313964844	1136.0357666015625	898.5547485351562
30	60	6691.6552734375	7329.64599609375	7671.599609375	7462.86181640625	7639.328125	9778.2119140625	10121.8857421875	6855.36083984375	7130.7705078125	5916.89501953125	6387.6494140625	9833.1396484375	7564.26220703125	5010.03515625	7101.80810546875	7394.91357421875	7756.23974609375	9449.1005859375	7728.7685546875	10462.009765625	6703.1533203125	8205.1669921875	7898.2841796875	9504.5576171875	7570.02099609375	7291.142578125	1531.8116455078125	1880.0052490234375	8257.552734375	6194.41748046875	5432.27685546875	1369.338623046875	5219.12109375	7773.263671875	5026.91162109375	7118.58349609375	5320.6201171875	7070.3193359375	3468.017578125	3138.439453125	6193.43798828125	4933.38720703125	4793.73779296875	8260.4501953125	6784.2685546875	3065.06591796875	6797.82861328125	6097.6318359375	5148.46142578125	1740.120849609375	3643.384033203125	6835.7080078125	3242.991455078125	8121.892578125	4539.42138671875	6706.21142578125	9243.0341796875	4605.00537109375	6848.755859375	3740.190673828125	4576.732421875	3657.579833984375	935.4171752929688	3887.448974609375	13258.8681640625	9808.28515625	9506.5419921875	11027.138671875	6881.20849609375	8661.166015625	4492.869140625	7925.39306640625	5989.22998046875	5731.34912109375	8970.53125	6994.2470703125	5227.9638671875	9953.1826171875	7738.384765625	6398.09033203125	6652.81494140625	8659.2177734375	8937.9287109375	3975.263671875	7114.45166015625	10472.529296875	5398.49658203125	11200.1787109375	6862.984375	8412.7109375	10932.78125	7519.28662109375	7383.2021484375	4708.353515625	7451.01806640625	6432.71337890625	1242.6343994140625	4446.7109375	13513.8798828125	9543.740234375
60	90	15492.146484375	16962.005859375	18223.05859375	17448.5234375	18701.69921875	22621.173828125	24416.5234375	15027.5517578125	16147.2880859375	14804.4755859375	14692.5966796875	20975.3203125	16217.2451171875	12488.181640625	16491.486328125	17436.19921875	18391.08984375	21147.716796875	17660.423828125	22384.931640625	16179.0498046875	18125.775390625	18016.19140625	21981.01953125	17166.458984375	15730.9794921875	4002.404296875	4370.6259765625	18612.751953125	14942.849609375	12010.3271484375	3249.902587890625	11957.4150390625	18348.677734375	11146.4462890625	15382.8095703125	12604.080078125	16249.6533203125	7857.0849609375	7521.23046875	14173.59375	11762.974609375	10580.822265625	18578.9453125	15777.3203125	7487.54833984375	16168.5439453125	14587.3193359375	11715.1650390625	4450.84619140625	8921.4462890625	15732.6953125	7044.38525390625	17935.30078125	10004.1455078125	15263.2021484375	21087.796875	10528.701171875	15290.9384765625	8615.78515625	10452.869140625	8318.9404296875	2068.893310546875	9815.70703125	26933.033203125	20601.328125	21269.787109375	23462.150390625	16017.166015625	18568.08203125	8880.4150390625	17980.146484375	13753.3583984375	13737.0322265625	19413.501953125	16782.494140625	11847.4921875	22216.71484375	18369.634765625	15334.78515625	16059.6669921875	19642.92578125	20334.712890625	10583.0859375	17319.859375	23224.54296875	12497.9873046875	24950.685546875	15169.9775390625	18738.150390625	25454.3125	17355.34375	16413.958984375	10734.0537109375	17287.296875	14082.66015625	2854.244384765625	11549.8388671875	29329.712890625	20641.353515625
90	120	25221.083984375	27360.91015625	29502.193359375	28536.533203125	30067.712890625	36007.125	38851.5234375	24199.0859375	27597.71484375	23185.0859375	23370.921875	34373.07421875	26653.474609375	18768.638671875	26667.322265625	28676.21875	29802.638671875	33407.90625	29679.154296875	37004.14453125	25414.189453125	28797.74609375	27430.4375	35378.9453125	26985.431640625	24805.26953125	6315.876953125	6978.18896484375	30084.77734375	23125.0234375	19061.755859375	5212.8759765625	18171.6953125	28156.15625	18589.8984375	24812.34375	20525.787109375	26493.1640625	13261.638671875	12137.125	22696.5859375	19879.017578125	17322.2734375	30738.107421875	26356.591796875	11858.9609375	25681.1640625	23835.75390625	18947.14453125	7111.3525390625	15332.7919921875	27199.845703125	11621.4072265625	28930.07421875	16518.4921875	24226.267578125	32766.12109375	17544.634765625	24955.521484375	14275.3974609375	16939.12109375	13176.76171875	3457.113037109375	15039.1552734375	44050.3828125	31853.71875	34547.92578125	37836.55859375	25388.3046875	29254.896484375	12674.041015625	29203.70703125	22474.91015625	21920.478515625	31128.94140625	27151.990234375	18134.34375	35993.96875	28977.6640625	24964.876953125	26319.177734375	31124.662109375	32634.60546875	17178.818359375	27322.732421875	38384.171875	20183.39453125	39427.0859375	24218.876953125	30302.11328125	41188.8359375	27785.06640625	26901.951171875	17748.650390625	27765.53125	23431.478515625	4409.951171875	18415.111328125	45861.1640625	32090.6796875
120	150	33400.08984375	36440.62109375	38896.1953125	37819.40625	40660.4609375	47672.5390625	54708.4296875	31397.291015625	34783.86328125	30936.25	30115.51171875	47628.76171875	33155.63671875	24643.3046875	34882.4765625	37587.171875	39214.1171875	44581.83984375	38022.48046875	47872.984375	35398.765625	37122.3046875	36567.33984375	39379.83984375	34474.98046875	32283.599609375	8151.4609375	9123.59765625	39157.72265625	30531.31640625	24527.861328125	7018.734375	24610.859375	38358.140625	24401.1640625	33467.50390625	26723.796875	35185.5859375	16995.986328125	15719.306640625	27293.322265625	25833.400390625	22096.671875	40729.15625	33204.5546875	16184.7939453125	35015.625	32102.1640625	25849.375	9811.9345703125	20581.66015625	34917.9609375	15374.6455078125	38504.828125	22123.06640625	32489.240234375	44243.8671875	23174.853515625	32324.408203125	18942.74609375	22813.62109375	17329.28125	4584.5712890625	22742.0703125	55167.09765625	40971.68359375	45920.35546875	47443.484375	33269.78515625	37058.1484375	15371.1884765625	37175.63671875	29707.767578125	28346.607421875	38891.046875	36188.87109375	22593.17578125	45753.17578125	36252.640625	32611.09765625	33015.0	40537.25390625	42807.2578125	21916.08984375	36057.1015625	52585.28125	25760.62890625	52399.5703125	31172.37890625	39446.37890625	55048.6171875	36918.6328125	34243.98828125	23260.56640625	35411.1484375	30508.416015625	5954.64453125	25515.720703125	60713.37109375	40989.25
150	180	35317.6953125	38000.7734375	40714.08203125	41602.1171875	42850.359375	50409.8671875	58032.55859375	32737.64453125	37031.48046875	34350.1796875	32332.181640625	46742.328125	35800.76953125	25939.37890625	36660.140625	40510.44140625	41413.33203125	47334.3515625	39903.66015625	52346.6484375	35814.69921875	37041.88671875	37221.8671875	42582.08984375	35725.1953125	32335.484375	8328.20703125	9533.0595703125	40696.14453125	32842.3359375	25636.685546875	7613.6318359375	26976.791015625	38921.31640625	25604.505859375	35217.2109375	28057.38671875	36300.99609375	18363.01953125	16144.2255859375	30939.0234375	27750.298828125	23150.8359375	43601.4921875	34593.109375	16784.947265625	33365.98828125	32862.63671875	27190.263671875	10777.037109375	21998.150390625	38058.48828125	16774.546875	40400.6953125	23416.02734375	34454.53515625	44707.609375	24694.73828125	34370.90625	20743.9453125	23741.171875	18547.220703125	4254.00927734375	22616.775390625	59221.39453125	42831.5703125	48945.640625	49075.64453125	35363.74609375	39059.578125	14119.8876953125	40002.1640625	31728.431640625	29197.658203125	41850.109375	38655.078125	23063.841796875	47582.53515625	36483.9609375	34156.85546875	36920.6875	42918.7109375	43733.62890625	23095.58203125	36919.2734375	53449.01953125	27773.21484375	54250.03515625	33462.86328125	41434.265625	55732.2265625	38994.92578125	36384.046875	25314.919921875	37741.56640625	31709.681640625	6375.880859375	26630.294921875	60313.703125	42909.70703125
180	240	34834.1640625	38479.67578125	40093.84765625	40637.93359375	42895.4375	50476.46484375	54515.2421875	32179.30078125	36116.6171875	34559.046875	31928.61328125	46110.76953125	34410.046875	24825.10546875	36138.7265625	39952.16796875	40714.54296875	47371.828125	41253.08203125	49951.08984375	36659.578125	37631.46484375	38449.55859375	42178.65625	36543.12109375	31043.16796875	8249.7919921875	9783.5234375	41322.14453125	32708.8046875	25130.326171875	7806.20556640625	26052.53515625	40212.87109375	25399.513671875	34217.20703125	28079.171875	36494.3125	18569.419921875	15872.0185546875	28770.640625	26956.791015625	22353.1484375	42699.5625	34451.75390625	17077.36328125	34697.48046875	33210.7109375	27534.033203125	11653.345703125	22216.3046875	36656.53515625	16793.35546875	38913.40625	23190.23828125	34295.73046875	46041.84765625	24710.951171875	33936.36328125	20600.484375	23493.9609375	18278.337890625	4409.60205078125	23842.71875	55544.53515625	42264.8984375	47009.20703125	47419.3125	34753.6640625	37865.64453125	13356.6640625	39262.14453125	31132.951171875	28644.88671875	40617.33203125	37432.0859375	22169.693359375	46650.8046875	36541.02734375	33046.140625	35485.9296875	42605.25390625	43576.10546875	22600.701171875	36055.2421875	52898.87109375	27585.056640625	51678.49609375	32970.03515625	40074.796875	54226.36328125	37713.16015625	35376.33203125	24918.125	37072.91015625	31747.537109375	6181.857421875	25818.099609375	59814.1640625	42856.296875
240	300	33000.484375	36412.02734375	37644.1484375	40762.05078125	41649.640625	47855.76171875	52810.6015625	30748.763671875	35156.05859375	34779.296875	30093.54296875	44748.4140625	32901.0078125	24246.001953125	34032.43359375	37839.203125	37593.37890625	45442.40625	40610.5234375	48393.421875	35811.1875	36434.6953125	36478.05078125	39645.10546875	33638.9140625	28654.142578125	7819.36328125	9657.81640625	38302.40625	30802.45703125	23605.94140625	7961.36767578125	25365.953125	37523.73046875	24920.703125	32401.2265625	25665.603515625	34731.8359375	17537.109375	14615.2744140625	27893.91796875	24641.591796875	21444.591796875	39732.89453125	31261.140625	16257.3173828125	33754.87109375	31957.9453125	25904.611328125	11924.6259765625	21261.38671875	35465.57421875	16784.548828125	37006.11328125	22469.115234375	32556.18359375	42860.80078125	23866.775390625	32706.755859375	20029.576171875	22915.486328125	17679.46875	4444.359375	21576.322265625	51397.234375	39287.03125	44981.66796875	43340.00390625	33053.109375	35344.17578125	12640.171875	36709.0234375	29155.234375	25537.2265625	38861.578125	34155.31640625	20347.931640625	42360.27734375	33351.2578125	30434.359375	34051.52734375	37996.375	40395.34375	20730.3359375	33155.41796875	50448.80859375	25944.716796875	47529.171875	30791.275390625	38150.6953125	50395.12109375	35422.75390625	33422.82421875	23899.98828125	34413.890625	30127.32421875	5878.1962890625	25701.29296875	52818.06640625	40120.65234375
300	360	30966.890625	34374.5234375	34669.375	39449.8203125	39657.84765625	46454.63671875	47859.4453125	29069.994140625	34054.0859375	33740.39453125	29272.125	40892.125	31208.275390625	23255.5	31926.490234375	36058.92578125	35075.71484375	43748.76953125	38213.48046875	45928.41796875	34891.46875	33422.99609375	35461.40625	37103.85546875	32280.751953125	26856.71875	7495.5380859375	9604.4990234375	36976.25390625	29331.1171875	22190.904296875	8043.2958984375	23763.802734375	34770.3515625	24159.529296875	30377.794921875	22950.716796875	32860.55078125	17215.962890625	13759.9326171875	26430.22265625	22471.91796875	19965.1640625	36803.91796875	29012.7265625	15656.9326171875	30095.689453125	31188.720703125	24162.30859375	11989.6357421875	20725.896484375	33227.28515625	16322.080078125	34130.1484375	21921.892578125	30747.201171875	41470.078125	22709.65234375	31070.984375	19205.16015625	21664.5390625	16849.064453125	4185.8701171875	20785.541015625	46492.84765625	36822.515625	41372.14453125	39133.78125	30755.046875	32603.0546875	10598.220703125	34641.6484375	26896.056640625	22930.291015625	35199.19140625	30244.69140625	19291.7890625	37990.76953125	30723.708984375	27313.67578125	33239.7265625	36217.90625	36636.66015625	18927.9609375	30579.16796875	45564.7421875	24464.423828125	42652.89453125	28798.939453125	35892.8359375	46698.06640625	32930.38671875	31436.873046875	22590.4296875	31720.431640625	27821.994140625	5782.39892578125	24086.03125	47383.15625	37657.1875
360	480	27665.271484375	31779.36328125	30442.013671875	37282.5703125	35852.8359375	40886.19921875	41938.15625	26749.73828125	30956.099609375	32187.69921875	26329.43359375	37718.109375	29661.046875	20755.45703125	28526.513671875	33198.76953125	30694.677734375	40059.71875	35127.046875	41039.28515625	33286.12109375	30378.943359375	32094.794921875	31906.228515625	28974.640625	24672.541015625	6993.02685546875	9325.9892578125	32322.373046875	26353.20703125	19815.287109375	8055.53173828125	21394.99609375	30545.6171875	22402.765625	26108.86328125	21066.189453125	29165.048828125	15351.138671875	12136.2880859375	24705.240234375	19071.76953125	18187.98828125	32955.6796875	25615.546875	14385.4501953125	27334.87890625	27375.443359375	22577.111328125	11235.794921875	18777.677734375	29400.38671875	15199.994140625	31513.34375	20016.5390625	27421.033203125	36940.34765625	21015.19921875	28051.125	17230.1640625	19873.6796875	15581.6484375	3941.71875	19273.361328125	39493.609375	33228.0625	36685.0625	33870.5390625	27147.509765625	28421.70703125	9719.876953125	29981.771484375	23259.154296875	18994.341796875	30926.05859375	25593.1796875	16621.123046875	32025.21484375	26607.72265625	23057.591796875	28703.1796875	31881.296875	32239.26953125	17700.73828125	26014.43359375	39096.12109375	21780.06640625	36652.2734375	25513.05859375	30956.1640625	40692.90625	28504.5	27971.416015625	20525.62890625	27899.6328125	24398.39453125	5377.09765625	22132.77734375	38538.68359375	33441.63671875
480	600	24173.9140625	28657.271484375	25612.1015625	34025.77734375	31729.154296875	35956.08984375	35564.265625	23579.564453125	28139.583984375	29267.328125	23592.833984375	31421.99609375	25589.412109375	19280.798828125	24894.158203125	30020.568359375	25942.11328125	35679.37109375	30259.0546875	35189.390625	30198.943359375	27278.87890625	29388.0390625	28126.169921875	25763.953125	21858.2109375	6471.15771484375	9112.9404296875	27147.40234375	23795.494140625	17107.4296875	8059.20458984375	18408.30859375	27235.28125	19837.57421875	22220.640625	17654.4140625	25069.578125	13625.841796875	10594.56640625	23120.5078125	15153.8974609375	16226.984375	27902.62109375	22063.3203125	13159.3662109375	23618.4140625	23848.517578125	19965.38671875	10901.98046875	16717.041015625	25124.89453125	14012.9541015625	26797.9453125	18002.697265625	24100.248046875	31290.67578125	18873.0	24414.59765625	15013.455078125	17729.43359375	13913.203125	3993.55712890625	17929.19921875	32968.8828125	28141.70703125	30790.0859375	28767.701171875	23046.28515625	23765.04296875	8100.4052734375	25160.072265625	18951.1015625	15090.2216796875	26431.125	19711.90234375	14709.2646484375	25659.3828125	22775.80078125	18897.955078125	26141.4765625	26277.23046875	26896.60546875	15987.759765625	21862.765625	32497.482421875	18317.99609375	30369.4609375	21677.791015625	26462.701171875	33286.08984375	23902.326171875	23997.517578125	17571.52734375	23686.103515625	20360.75390625	5347.8046875	20248.41796875	31523.482421875	29381.435546875
600	900	20579.53125	24969.345703125	20453.666015625	30219.447265625	26872.927734375	29564.466796875	29667.87890625	20883.3515625	23576.228515625	25157.609375	20270.744140625	25153.533203125	22816.2265625	18160.591796875	20970.4140625	25658.7890625	20759.1796875	30409.580078125	25804.87109375	28951.787109375	27199.712890625	22265.974609375	25214.453125	22524.494140625	21813.20703125	19701.892578125	6101.81787109375	9067.3955078125	22131.59375	21230.392578125	14343.0751953125	8216.9736328125	15618.85546875	23272.1171875	17376.98828125	17730.51953125	14253.984375	20454.421875	11541.95703125	9128.052734375	20621.341796875	11654.7392578125	14465.326171875	22658.02734375	17671.59765625	11703.91796875	19156.0625	19850.986328125	16874.3203125	10905.4287109375	14707.4326171875	21611.162109375	12435.0458984375	22940.078125	15579.8515625	20031.908203125	26005.625	16330.8408203125	20554.064453125	12577.6884765625	15488.1142578125	12093.8359375	4089.283935546875	16176.2314453125	25093.79296875	23392.970703125	24409.328125	23250.25	18719.849609375	18562.013671875	7424.0703125	20004.62890625	14718.2666015625	11625.2080078125	21831.1640625	14245.3330078125	12832.302734375	19951.92578125	18048.41796875	14531.5751953125	20176.078125	21397.71875	21273.625	14751.0341796875	17687.87890625	25117.521484375	14967.857421875	23772.158203125	17779.392578125	21339.828125	26234.55859375	19074.001953125	19858.931640625	14260.69140625	18825.5703125	15875.51171875	5470.4306640625	17875.4140625	24492.626953125	24099.595703125
900	1200	17742.1484375	21342.701171875	16334.02734375	25830.880859375	22392.96484375	24532.041015625	25114.201171875	17851.994140625	19988.1328125	21718.482421875	17500.626953125	20581.923828125	19870.572265625	16620.78515625	17953.947265625	22054.1796875	16625.046875	25427.76953125	21565.013671875	23385.91796875	23517.96484375	18709.826171875	20697.087890625	17482.033203125	18698.0390625	17426.8671875	5818.97216796875	9226.3544921875	17394.068359375	18760.501953125	12109.044921875	8471.9833984375	13058.8046875	19626.849609375	15103.560546875	14625.255859375	11684.4169921875	16394.935546875	9721.24609375	7999.21923828125	18331.837890625	9181.3359375	12463.5830078125	18376.009765625	14720.6357421875	10368.99609375	15382.759765625	16670.2421875	14455.2802734375	10989.587890625	13334.8515625	18052.384765625	11084.9384765625	19416.546875	13476.9111328125	16839.666015625	20762.1328125	14217.6494140625	17056.259765625	10654.544921875	13459.0244140625	10493.72265625	3992.755859375	14220.70703125	20322.693359375	19227.431640625	19977.337890625	19219.169921875	15452.818359375	15099.1650390625	7052.32958984375	16005.18359375	11390.1875	9331.189453125	17869.25390625	10708.0341796875	11436.42578125	15847.55859375	14761.732421875	11763.908203125	17131.619140625	17271.26171875	17047.8515625	14019.0625	14641.9609375	19573.521484375	12207.9658203125	19477.333984375	14848.177734375	17395.9375	21147.341796875	15596.4150390625	16547.572265625	11868.3564453125	15522.900390625	12447.83203125	5218.29052734375	15864.1875	20660.2890625	19875.05859375
1200	1500	16241.2529296875	19339.18359375	14044.70703125	23205.236328125	19735.48046875	21095.833984375	22011.37109375	16172.263671875	17306.140625	18267.029296875	15651.8623046875	17142.564453125	17582.474609375	16134.9765625	16328.6396484375	19479.00390625	14276.6552734375	22204.205078125	19154.84765625	20219.9140625	21463.072265625	16149.400390625	18287.123046875	15951.453125	17352.470703125	16599.525390625	5841.86474609375	9327.4189453125	14376.216796875	17377.658203125	10850.5302734375	8703.4853515625	11247.861328125	17529.23046875	13851.6318359375	12733.2900390625	10544.326171875	14249.5478515625	8904.263671875	7326.60009765625	16635.189453125	8099.798828125	11493.7900390625	15867.8212890625	13001.6083984375	9617.8349609375	12961.251953125	14747.2705078125	13108.2880859375	11173.98828125	12354.8408203125	16775.48046875	10350.9462890625	17491.015625	12385.5888671875	14975.0078125	18070.94140625	12941.2412109375	15254.498046875	9686.0966796875	12223.8251953125	9533.369140625	4024.255859375	13708.501953125	17662.85546875	16712.1328125	17170.97265625	17408.154296875	13688.705078125	13445.232421875	6296.48583984375	13445.5712890625	9873.236328125	8139.9853515625	15930.1953125	9152.0107421875	10625.4189453125	13717.6884765625	13007.5634765625	10379.1025390625	13906.923828125	15282.025390625	14681.4091796875	13187.02734375	13098.7998046875	16922.859375	10897.1591796875	17233.890625	13108.3994140625	15504.341796875	17777.33203125	13585.2373046875	14836.56640625	10538.2314453125	13595.4169921875	10803.3701171875	5174.38037109375	14716.140625	18460.908203125	17358.82421875
1500	1800	15057.1416015625	17672.677734375	12415.1171875	20302.7890625	16981.783203125	18571.607421875	20251.5859375	14825.56640625	15424.1396484375	16211.1787109375	13948.966796875	15477.85546875	16467.44921875	15299.0390625	14892.30078125	17475.47265625	12524.4599609375	18994.935546875	17333.98828125	18062.91015625	18895.041015625	14009.9677734375	16051.1455078125	12951.16015625	15347.728515625	14838.6162109375	5682.5615234375	9493.43359375	11956.181640625	16233.2646484375	9940.0595703125	8850.5458984375	10307.5458984375	15889.4091796875	12930.7275390625	11552.9091796875	9703.9892578125	12603.3857421875	8142.48046875	6832.11181640625	15193.9638671875	7294.15966796875	10817.115234375	14353.572265625	11589.212890625	8998.1025390625	11541.5029296875	13232.1484375	11903.1474609375	11079.3076171875	11252.3896484375	15141.775390625	9464.181640625	15553.38671875	11353.4755859375	13331.5068359375	16080.818359375	12017.3525390625	13622.7578125	8939.505859375	11263.107421875	8885.0615234375	4134.189453125	13354.7265625	16057.806640625	15067.3173828125	14944.361328125	15907.51953125	11829.318359375	12126.9111328125	6281.29833984375	11865.5693359375	8532.93359375	7389.98779296875	14660.87890625	8069.74462890625	9960.7724609375	12298.3623046875	11637.615234375	9282.2890625	12872.666015625	13794.900390625	12691.759765625	13272.5634765625	12069.40234375	15171.2998046875	9612.3466796875	15638.6669921875	11547.873046875	14241.23828125	15844.357421875	11755.732421875	13460.5888671875	9464.1650390625	12265.7333984375	9533.478515625	5150.7236328125	13774.9404296875	16926.265625	15518.1953125
1800	2100	13880.619140625	16095.486328125	10855.4169921875	18061.69140625	15440.9228515625	16466.669921875	17244.724609375	13012.1630859375	13869.654296875	14404.892578125	12492.5517578125	12984.5390625	14928.626953125	13530.9765625	13634.7314453125	15721.501953125	11036.72265625	16897.048828125	15440.40625	15769.44140625	17178.01171875	13027.09765625	13573.8955078125	12312.095703125	14071.1337890625	13748.2109375	5521.9677734375	9410.9296875	10442.65625	14928.3056640625	9122.77734375	8808.6083984375	9023.2001953125	14496.8935546875	11991.2890625	10173.7548828125	8699.689453125	11195.5712890625	7504.53857421875	6334.15869140625	13891.267578125	6554.85791015625	10018.755859375	12586.9228515625	10421.0234375	8315.7431640625	10372.4560546875	11756.947265625	11162.9150390625	10578.412109375	10390.3818359375	13704.0224609375	8828.982421875	14154.9326171875	10379.13671875	11921.3740234375	13818.8037109375	11175.4658203125	12108.3623046875	8031.3310546875	10321.3486328125	8294.5341796875	3987.0615234375	12127.43359375	14497.166015625	13274.837890625	13947.9619140625	14729.4140625	10404.908203125	10622.4716796875	5888.23779296875	10317.2626953125	7507.5732421875	6673.72265625	13458.6044921875	7029.18408203125	9086.45703125	11121.8486328125	10410.04296875	8812.96484375	11660.7119140625	12608.423828125	11169.8447265625	12792.3759765625	10896.3740234375	13263.279296875	8642.0341796875	13967.2607421875	10323.4384765625	12969.83203125	14137.177734375	10661.724609375	12013.2490234375	8484.8310546875	11133.7548828125	8889.5419921875	5294.84375	12730.177734375	15599.859375	14015.328125
2100	2400	12817.2373046875	14237.111328125	9733.185546875	15766.26953125	13659.21484375	14657.7548828125	15982.955078125	11788.5498046875	12031.4296875	13061.7607421875	11427.7705078125	11480.001953125	13366.3974609375	12722.9677734375	12513.2587890625	14147.1328125	9967.12890625	14530.142578125	14070.9541015625	14152.5322265625	15313.455078125	11195.5966796875	12086.0400390625	10289.8564453125	12328.2392578125	12627.693359375	5449.337890625	9207.7626953125	9008.205078125	13632.9287109375	8397.2607421875	8727.3349609375	8374.6201171875	13055.5390625	10952.5927734375	9389.2861328125	8363.2529296875	9927.28125	6741.822265625	6035.9931640625	12756.28515625	5976.1494140625	9311.7646484375	11546.5908203125	9195.4453125	8028.25732421875	8866.6845703125	10546.322265625	10164.3427734375	10533.716796875	10023.6591796875	12300.5322265625	8317.4384765625	12789.078125	9426.7294921875	10704.4306640625	12505.943359375	10275.6875	10942.712890625	7527.65087890625	9510.609375	7663.85595703125	3836.85693359375	11365.73046875	13283.5703125	11914.9794921875	11841.5810546875	13427.884765625	9574.0615234375	9810.58984375	5588.82958984375	9236.7158203125	6850.7734375	6300.77294921875	12167.2236328125	6491.3984375	8665.0498046875	9965.892578125	9571.3310546875	8229.1015625	9923.15625	11338.7568359375	10203.4560546875	12332.24609375	10251.9423828125	11928.396484375	7958.5341796875	13063.1669921875	9535.138671875	11776.8310546875	12809.8037109375	9512.1923828125	10985.62890625	7740.84228515625	10212.8330078125	8191.3720703125	5171.41748046875	11671.9970703125	14643.5927734375	12694.1787109375
2400	2700	11976.0458984375	13115.50390625	8717.607421875	13941.681640625	12308.5986328125	13179.537109375	14249.8359375	10742.755859375	11435.96875	11370.9013671875	10303.66015625	9718.0546875	12093.9140625	12515.4765625	11634.673828125	12740.3349609375	9015.5107421875	13233.564453125	12794.2646484375	12340.0517578125	14002.4892578125	10169.3359375	10750.6728515625	9819.3798828125	11524.2421875	11917.6875	5313.9130859375	9083.9765625	8109.626953125	12066.3798828125	7762.40283203125	8631.611328125	8123.0947265625	11735.8935546875	10113.0615234375	8318.2822265625	7774.49609375	8962.142578125	6437.49658203125	5680.3828125	11662.8134765625	5589.03662109375	8768.701171875	10380.884765625	8101.44873046875	7386.79345703125	8009.11962890625	9402.669921875	9411.8837890625	9777.412109375	9270.59765625	11918.59375	7598.82373046875	11831.2421875	8808.125	9809.1298828125	10928.51953125	9269.240234375	9879.9453125	6957.6201171875	8797.662109375	7205.5908203125	3712.2421875	10508.01171875	12126.072265625	10847.212890625	10651.5888671875	12983.73828125	8596.8623046875	8937.8525390625	5973.67138671875	8344.189453125	6281.4052734375	5885.732421875	11148.7578125	5953.021484375	8064.57958984375	9055.50390625	8288.71484375	7802.2822265625	8954.298828125	10839.0498046875	9171.2666015625	11765.615234375	9253.9853515625	10828.8798828125	7259.69140625	11604.7275390625	8685.4384765625	10674.1728515625	11695.056640625	8510.15625	9827.0224609375	7121.5517578125	9427.791015625	7624.22119140625	5278.48681640625	11607.6259765625	12730.220703125	11396.333984375
