frame_start	frame_end	Left-Cerebral-White-Matter	Left-Cerebellum-White-Matter	Left-Cerebellum-Cortex	Left-Thalamus	Left-Caudate	Left-Putamen	Left-Pallidum	Brain-Stem	Left-Hippocampus	Left-Amygdala	CSF	Left-Accumbens-area	Left-VentralDC	Left-choroid-plexus	Right-Cerebral-White-Matter	Right-Cerebellum-White-Matter	Right-Cerebellum-Cortex	Right-Thalamus	Right-Caudate	Right-Putamen	Right-Pallidum	Right-Hippocampus	Right-Amygdala	Right-Accumbens-area	Right-VentralDC	Right-choroid-plexus	AirCavity	Skull	Vermis	Pons	CSF-ExtraCerebral	Head-ExtraCerebral	ctx-lh-bankssts	ctx-lh-caudalanteriorcingulate	ctx-lh-caudalmiddlefrontal	ctx-lh-cuneus	ctx-lh-entorhinal	ctx-lh-fusiform	ctx-lh-inferiorparietal	ctx-lh-inferiortemporal	ctx-lh-isthmuscingulate	ctx-lh-lateraloccipital	ctx-lh-lateralorbitofrontal	ctx-lh-lingual	ctx-lh-medialorbitofrontal	ctx-lh-middletemporal	ctx-lh-parahippocampal	ctx-lh-paracentral	ctx-lh-parsopercularis	ctx-lh-parsorbitalis	ctx-lh-parstriangularis	ctx-lh-pericalcarine	ctx-lh-postcentral	ctx-lh-posteriorcingulate	ctx-lh-precentral	ctx-lh-precuneus	ctx-lh-rostralanteriorcingulate	ctx-lh-rostralmiddlefrontal	ctx-lh-superiorfrontal	ctx-lh-superiorparietal	ctx-lh-superiortemporal	ctx-lh-supramarginal	ctx-lh-frontalpole	ctx-lh-temporalpole	ctx-lh-transversetemporal	ctx-lh-insula	ctx-rh-bankssts	ctx-rh-caudalanteriorcingulate	ctx-rh-caudalmiddlefrontal	ctx-rh-cuneus	ctx-rh-entorhinal	ctx-rh-fusiform	ctx-rh-inferiorparietal	ctx-rh-inferiortemporal	ctx-rh-isthmuscingulate	ctx-rh-lateraloccipital	ctx-rh-lateralorbitofrontal	ctx-rh-lingual	ctx-rh-medialorbitofrontal	ctx-rh-middletemporal	ctx-rh-parahippocampal	ctx-rh-paracentral	ctx-rh-parsopercularis	ctx-rh-parsorbitalis	ctx-rh-parstriangularis	ctx-rh-pericalcarine	ctx-rh-postcentral	ctx-rh-posteriorcingulate	ctx-rh-precentral	ctx-rh-precuneus	ctx-rh-rostralanteriorcingulate	ctx-rh-rostralmiddlefrontal	ctx-rh-superiorfrontal	ctx-rh-superiorparietal	ctx-rh-superiortemporal	ctx-rh-supramarginal	ctx-rh-frontalpole	ctx-rh-temporalpole	ctx-rh-transversetemporal	ctx-rh-insula
0	30	17.535371780395508	-4.411490440368652	5.971213340759277	29.127092361450195	10.74184513092041	10.698204040527344	27.645355224609375	13.370119094848633	13.020105361938477	20.909374237060547	19.331287384033203	35.38063049316406	12.47673225402832	145.94607543945312	21.17526626586914	0.43888527154922485	9.367046356201172	53.28190231323242	0.9210877418518066	7.395717620849609	126.87398529052734	-1.7619616985321045	45.858154296875	-33.74618148803711	77.28588104248047	139.7047119140625	-2.9718620777130127	9.746121406555176	2.715489149093628	-5.5930986404418945	13.22081470489502	8.939713478088379	-7.909446716308594	78.1722183227539	47.38956832885742	29.07942008972168	-18.612430572509766	-8.439284324645996	43.992332458496094	3.025481939315796	28.692195892333984	40.92267990112305	-25.306705474853516	57.241058349609375	15.450499534606934	13.250635147094727	-6.481509208679199	-12.708815574645996	98.1115951538086	13.438854217529297	45.25056076049805	27.02019691467285	19.009061813354492	19.33267593383789	23.16928482055664	20.266765594482422	13.524090766906738	42.60812759399414	32.30210494995117	-3.553985118865967	60.82148742675781	12.395663261413574	8.91795825958252	-19.462610244750977	244.77984619140625	108.71461486816406	-7.320333480834961	98.55644226074219	12.626636505126953	13.49320125579834	-14.216544151306152	-11.229870796203613	20.179784774780273	-0.35908839106559753	-6.723273277282715	58.60163879394531	6.302251815795898	67.52857971191406	23.379714965820312	14.873661041259766	-8.316276550292969	-38.320064544677734	129.30747985839844	46.5999870300293	48.687294006347656	165.8363494873047	14.411961555480957	-1.48727285861969	19.667768478393555	22.61172866821289	107.70704650878906	37.826900482177734	23.121076583862305	-16.44418716430664	35.981910705566406	82.30247497558594	-28.861061096191406	-25.91140365600586	51.02223205566406	48.187679290771484
30	60	1091.859375	2396.64599609375	4040.52587890625	6316.14501953125	5556.87744140625	6194.88232421875	2305.14794921875	3815.009521484375	4126.9296875	4943.32421875	188.3929443359375	9434.796875	4263.5205078125	3148.42919921875	1374.3948974609375	1844.3077392578125	4510.451171875	5417.05908203125	5598.27197265625	5213.0966796875	3012.721435546875	4379.41552734375	4711.1201171875	7824.2041015625	3437.28857421875	4093.83251953125	764.7654418945312	1109.340576171875	1444.0201416015625	2967.711181640625	2536.181640625	1051.0025634765625	6497.65673828125	8720.1201171875	6726.82666015625	9212.7802734375	7174.80908203125	5701.5859375	5831.220703125	4941.1005859375	6530.158203125	6327.4736328125	6767.1865234375	7391.40673828125	8202.7802734375	5384.60595703125	4951.7744140625	4618.16357421875	7629.21923828125	6778.9384765625	7587.69580078125	12270.80859375	6424.7939453125	8282.884765625	7076.12451171875	6940.8330078125	7048.4912109375	7213.1181640625	6729.42236328125	5168.39794921875	6280.1357421875	6626.48193359375	7268.5595703125	4002.5703125	10745.166015625	7626.33642578125	6461.53466796875	7806.06787109375	5690.0009765625	7125.39453125	5644.73974609375	4119.25439453125	5185.81494140625	4318.873046875	6603.4248046875	5420.376953125	6804.037109375	6433.8134765625	6221.548828125	4349.693359375	4163.86962890625	5028.43115234375	6727.1640625	6401.62451171875	6855.10546875	8868.96484375	5716.95751953125	8321.619140625	5990.41455078125	6189.62451171875	5394.1748046875	6077.3779296875	6283.556640625	4378.8154296875	5226.49560546875	6136.5625	7321.8642578125	4939.34375	12887.3486328125	7555.25634765625
60	90	4076.71044921875	8522.1103515625	15601.82421875	21091.759765625	23098.359375	24846.158203125	7053.392578125	11450.875	16981.111328125	15363.369140625	448.7856140136719	20477.529296875	13126.0908203125	16325.87109375	4733.125	7779.572265625	16411.43359375	19328.033203125	18874.703125	21778.416015625	8569.1875	15108.068359375	16301.1669921875	25862.453125	12195.6220703125	19081.09765625	2584.824462890625	3407.685302734375	13968.501953125	11510.349609375	5227.203125	3342.98779296875	21126.68359375	25309.728515625	27512.1875	32248.46484375	24372.201171875	17790.962890625	21885.13671875	20840.001953125	24844.8984375	24186.458984375	23800.61328125	24736.259765625	29047.994140625	20685.43359375	13050.4853515625	20078.509765625	26258.53125	26380.2734375	26465.53125	41055.2890625	23603.298828125	27876.623046875	25607.310546875	24129.07421875	23939.005859375	27474.017578125	24995.748046875	20132.083984375	20203.16796875	23576.30078125	32511.2578125	17375.265625	40457.09765625	21516.79296875	22289.5390625	22615.931640625	23105.6484375	27742.912109375	22687.720703125	15554.81640625	20942.16015625	17637.943359375	25331.275390625	24038.40625	23183.021484375	24448.2109375	24671.958984375	18213.029296875	14728.197265625	22603.7421875	23115.5625	22965.162109375	23179.91796875	34999.84375	22691.322265625	26529.91796875	23384.50390625	23032.0703125	18131.44140625	24314.435546875	23173.462890625	20206.119140625	18670.392578125	21123.03125	28111.43359375	19777.892578125	44721.546875	20861.501953125
90	120	8019.11572265625	15139.5615234375	30585.626953125	38460.6875	42583.4453125	45490.125	18174.59765625	21742.72265625	29094.3046875	27031.708984375	1323.5238037109375	34916.1171875	25383.708984375	31899.298828125	8734.7060546875	13862.4384765625	32008.2109375	36592.78515625	40076.515625	42643.0859375	15974.1962890625	27516.1015625	23528.802734375	41073.02734375	26239.1015625	29306.66796875	4631.7470703125	5815.17822265625	25946.119140625	22627.162109375	6851.49951171875	5911.14208984375	45465.765625	48461.66796875	50410.76953125	63580.98046875	35907.71875	34925.78125	41744.75	41453.03515625	47954.33203125	48949.453125	44575.67578125	48649.28125	45782.0546875	40161.59765625	27719.78515625	39141.546875	52809.69140625	50986.85546875	52366.76953125	81319.234375	45863.44140625	55449.8515625	48267.60546875	48272.296875	44334.5859375	55085.3203125	48604.30859375	40208.359375	38574.1328125	44867.8359375	57748.56640625	32516.9921875	68724.6328125	38636.78125	43437.73828125	45584.6953125	46139.22265625	58077.5	40030.86328125	31077.96484375	42565.00390625	35779.6875	47400.8046875	48273.02734375	45673.5234375	46802.078125	47096.00390625	36220.01171875	25247.419921875	44435.453125	46464.5	45801.94921875	44704.33203125	67752.15625	47158.8359375	52007.66796875	45652.484375	45159.015625	37841.328125	51017.76953125	45574.0	41409.15234375	36049.609375	41369.53125	55651.50390625	35577.58984375	77278.4765625	38631.6484375
120	150	10726.7841796875	21683.203125	45873.8984375	54709.765625	62619.55078125	70004.078125	25335.32421875	32809.1484375	44266.38671875	33495.16015625	1983.058349609375	51766.0625	36272.2890625	39786.55078125	11728.7998046875	21883.18359375	45903.3359375	52197.625	58370.65625	64633.03515625	29941.98046875	42225.74609375	37593.01953125	50066.05859375	35881.08984375	49732.23828125	5964.36328125	7691.35595703125	36150.5625	33942.125	5726.70166015625	8345.4326171875	64339.875	68644.6796875	76271.140625	95395.75	59294.62890625	47756.75390625	63066.515625	60229.4140625	70191.4453125	71725.2578125	67351.2109375	75426.6171875	71129.2265625	60217.84765625	36954.6015625	61264.23046875	75373.875	73421.15625	75760.703125	122630.8046875	69311.859375	78369.234375	70486.09375	71171.8671875	64741.546875	80618.875	72564.8125	64077.484375	57413.44140625	66421.3359375	82924.5234375	46737.59375	97740.03125	52439.12890625	69078.9453125	58751.328125	71269.6328125	81492.3046875	57929.54296875	45431.1640625	63630.984375	55123.52734375	63600.53125	74147.046875	67109.796875	66430.65625	66150.5703125	56038.4921875	41041.7265625	66959.125	68149.0078125	66793.9453125	68742.90625	112549.34375	70875.03125	69741.859375	68858.875	69791.53125	55289.5703125	74619.2109375	69816.8125	66543.8828125	51533.23046875	63394.4453125	83306.546875	52306.71875	94894.703125	49959.02734375
150	180	12115.04296875	26463.294921875	50688.03125	62546.859375	72768.546875	76727.65625	25603.876953125	34834.55078125	49386.578125	41614.5	2089.384765625	52023.7734375	39551.7890625	35570.36328125	12794.736328125	24927.25	51442.01171875	60291.40234375	68106.875	73481.1796875	27798.208984375	46148.0546875	38699.890625	57478.734375	42703.609375	43379.328125	5851.16552734375	7653.58349609375	44554.359375	36983.00390625	2156.271240234375	8822.140625	72401.6171875	80360.2578125	89296.8984375	107758.5703125	53711.58203125	54127.65625	72827.8984375	68887.625	74960.015625	83131.6484375	77582.3984375	82778.6171875	77069.171875	69092.125	39993.234375	75347.4453125	89148.7421875	86014.8984375	85880.75	132021.421875	81002.359375	79449.5234375	80715.53125	80250.390625	66506.8984375	90908.9609375	82669.3046875	72893.8984375	63844.19921875	76625.4921875	90830.796875	54735.6328125	107147.34375	57115.6953125	77327.0703125	64237.29296875	83369.59375	94459.71875	66707.4609375	57007.9453125	76707.4296875	63019.62890625	70570.234375	85846.0	73937.3203125	77025.703125	69940.0390625	64531.90625	42769.640625	77967.921875	76841.8203125	76911.328125	76292.5234375	122306.1953125	81730.890625	79606.046875	77858.4921875	78701.8671875	59210.359375	84597.234375	78685.6171875	78058.859375	58840.84765625	71260.8828125	99599.046875	54801.7265625	116784.25	56131.33984375
180	240	12942.330078125	24735.83203125	51314.81640625	62139.10546875	71589.328125	79702.375	28101.513671875	34399.9453125	42138.26171875	42570.75	1710.4776611328125	55981.49609375	39765.96484375	26177.955078125	13363.21875	23921.177734375	52980.671875	60602.7734375	73425.9921875	74455.6015625	28497.150390625	44841.7890625	42172.66796875	39998.37109375	41660.390625	33659.86328125	5397.451171875	7175.94921875	38997.24609375	39248.23046875	-156.3619384765625	8936.986328125	71367.0859375	79388.859375	86979.671875	105586.0	55964.859375	54401.62109375	74088.4140625	69439.5625	74891.0625	82702.453125	74228.109375	81096.6640625	74804.921875	69749.5703125	42361.47265625	71179.0	82061.375	85801.984375	82614.0546875	129287.515625	81687.5859375	85548.421875	81353.7265625	81000.8515625	72008.765625	91530.671875	82556.6484375	75941.5234375	64475.5234375	75415.875	94870.359375	53602.68359375	103949.875	56708.5390625	79258.9453125	64989.5234375	83003.5546875	98942.6171875	65300.9140625	52709.90625	77326.0546875	65335.91015625	72787.59375	88286.703125	73436.1484375	77693.5390625	74821.890625	65521.578125	43924.08984375	76087.7265625	77462.9375	78522.765625	80184.0703125	117065.90625	83483.4609375	78202.359375	79731.484375	78970.53125	57391.48828125	87390.984375	80108.1796875	79538.65625	59992.4296875	72037.0703125	91534.5859375	53950.23828125	114176.875	54917.671875
240	300	13095.9208984375	24482.5234375	48247.05078125	57578.0	67773.1640625	73763.6484375	28869.05859375	33291.03125	40711.55078125	43219.37109375	1004.4710083007812	52594.71484375	35784.125	16838.04296875	13470.30859375	24458.890625	49640.53515625	56669.22265625	66248.7109375	68614.2421875	29748.31640625	40774.5	41550.12109375	52645.68359375	41152.84765625	21115.87890625	5004.13037109375	6804.1845703125	42768.16015625	36963.375	-1460.71435546875	8904.908203125	67927.78125	72395.9921875	81165.265625	96837.765625	55609.421875	54272.609375	68079.8203125	64942.3203125	70759.9921875	77514.6953125	71187.5234375	75485.6796875	68352.3984375	66827.1796875	41547.6875	70500.578125	78325.84375	79906.7578125	77623.859375	116251.2578125	75531.3203125	81201.8125	75067.5234375	74599.7890625	65326.03515625	85386.0546875	77005.640625	72503.046875	59269.234375	70238.4765625	86718.8671875	52524.1484375	91718.3515625	55859.34375	75760.3828125	62423.0859375	78047.296875	93586.328125	62242.3515625	52754.65234375	72978.5546875	63417.5859375	68005.9609375	83127.578125	68847.8359375	71993.5625	67890.6484375	63195.0390625	43035.84375	72403.109375	70801.015625	74170.7734375	75182.390625	104436.1953125	76172.7890625	72110.640625	74488.921875	73449.4453125	59194.6875	80962.7890625	75196.28125	75411.703125	57660.84375	69147.453125	85362.0390625	52785.140625	100089.2890625	52094.75
300	360	13335.1748046875	23481.775390625	44850.875	54215.328125	61326.83203125	66465.9375	28737.267578125	31922.2421875	36346.203125	43632.8828125	912.5938110351562	48602.41796875	35791.00390625	4755.7841796875	13797.189453125	23164.53515625	45452.87109375	53502.6953125	59411.375	66138.59375	30329.255859375	36373.57421875	40938.9296875	49487.1328125	39302.17578125	10383.3662109375	4238.9677734375	6575.10107421875	37708.328125	34386.06640625	-1892.9422607421875	8647.6943359375	64988.44140625	65354.375	74453.5	89117.109375	52403.53515625	48660.7890625	61709.703125	60003.85546875	60530.22265625	70099.1796875	64816.62890625	70568.953125	63473.9609375	62373.49609375	40877.609375	61964.79296875	70373.7109375	70822.0546875	68388.8203125	103106.984375	67651.3828125	71596.4296875	67569.5078125	68031.0234375	60459.82421875	76232.7265625	70405.421875	66044.03125	56062.1171875	63849.8046875	83180.046875	50382.296875	85221.453125	52757.23828125	68781.234375	55405.05078125	70472.9765625	83030.3828125	59118.9453125	49961.51953125	66863.6015625	57536.69140625	60842.09375	76818.328125	63453.7734375	66917.0	62643.08203125	59335.43359375	41296.28125	66672.71875	66253.25	68087.7109375	67750.859375	94044.8671875	69535.4921875	65904.5625	66495.1875	67904.46875	52859.17578125	74696.7890625	68784.6953125	69687.5859375	53794.04296875	62337.578125	76466.2109375	49081.15234375	83087.0234375	48657.23046875
360	480	13680.623046875	21868.634765625	39364.01171875	48617.07421875	54186.73828125	59856.08203125	29171.34375	29689.5390625	33183.0703125	37283.1953125	371.5435485839844	39314.90625	35679.734375	2790.397216796875	13988.2919921875	21930.47265625	40163.4453125	47896.26953125	53203.93359375	56913.609375	30338.96875	32447.59375	39680.05859375	42158.75	35861.9140625	8613.1806640625	3495.6201171875	6475.1259765625	33197.32421875	32451.4375	-1874.9710693359375	8676.5390625	54391.3671875	57530.171875	61257.73828125	77099.234375	47634.92578125	45159.08203125	53174.0078125	54011.953125	51878.59765625	59424.9453125	56533.52734375	60425.5390625	55929.78515625	55056.1484375	33640.015625	53396.10546875	59327.484375	61070.77734375	60771.92578125	81716.3828125	57816.8203125	62941.7265625	59195.03515625	57885.85546875	54509.453125	66624.5546875	60524.3046875	56459.66015625	50108.72265625	55214.4296875	67399.8125	47103.01953125	64987.39453125	47352.79296875	59122.67578125	51529.09765625	60692.578125	71714.9921875	54041.796875	45355.30859375	58062.93359375	52570.79296875	54735.17578125	65595.171875	55298.3203125	57408.44140625	55751.8828125	51892.20703125	38190.66796875	56551.828125	56560.5078125	59667.33984375	57670.5234375	75696.4296875	60037.25	54524.73046875	57161.8671875	57678.984375	47049.5703125	64701.0703125	59378.5078125	58307.8359375	48150.078125	53743.1171875	69024.0546875	46748.0234375	69215.03125	44263.5390625
480	600	14072.427734375	21688.37890625	33176.64453125	42037.5234375	45343.9453125	50326.0234375	27643.361328125	26809.658203125	28016.576171875	37073.0703125	225.28262329101562	32802.359375	33481.5625	585.1163940429688	14151.447265625	21503.185546875	33904.421875	43344.16796875	44555.74609375	48179.5703125	26162.994140625	29038.16015625	35579.55078125	33915.72265625	33614.82421875	5507.9189453125	2880.208251953125	6499.3876953125	27841.5546875	29142.080078125	-1320.3795166015625	8577.9560546875	46913.41796875	46510.00390625	50723.61328125	63186.44140625	43438.65234375	39189.82421875	44352.68359375	45189.75390625	43464.1015625	49357.04296875	46155.1640625	49812.6015625	47866.49609375	47188.55078125	31066.146484375	43542.86328125	49696.6796875	52295.48828125	49631.37109375	63072.36328125	48215.22265625	50475.35546875	48097.39453125	48284.421875	44577.56640625	54626.65234375	50069.23046875	45840.2578125	42405.61328125	46042.1796875	58157.0703125	44737.21875	55575.4453125	42813.80078125	48658.9375	43225.14453125	48400.19140625	61172.3125	48756.3671875	39636.5859375	48787.203125	45298.88671875	44525.82421875	54731.453125	47037.3671875	48173.14453125	47015.08984375	43651.4453125	32852.9140625	48625.11328125	45759.5	50067.53515625	47368.08984375	59398.0234375	48222.81640625	46347.46484375	46609.7265625	48085.8984375	41616.3046875	53367.2890625	49270.125	48314.7734375	41684.609375	45012.859375	52645.1640625	44247.8671875	58223.3125	38797.6484375
600	900	14883.138671875	20772.7265625	26736.95703125	34887.04296875	34677.6015625	38338.99609375	28060.828125	23604.1015625	23543.193359375	32379.6015625	-23.534868240356445	28082.4609375	29720.267578125	-2737.268310546875	14742.658203125	20567.560546875	27245.35546875	35383.05859375	32687.189453125	38007.33203125	27088.56640625	24977.09375	31928.51171875	30205.65234375	30401.609375	5048.30859375	1948.372314453125	6715.970703125	22184.720703125	26488.083984375	-881.9823608398438	8757.7236328125	36191.5	37438.046875	39091.9453125	50432.6171875	37604.6953125	33036.0078125	34654.80078125	36789.7890625	36164.140625	38593.15625	37662.859375	38674.55859375	38535.390625	38029.671875	25801.904296875	34487.2734375	38957.71484375	41169.74609375	37864.96484375	46116.49609375	36756.234375	39340.02734375	37797.3125	37473.015625	35335.796875	43245.4921875	39303.80859375	35503.34765625	35586.1171875	36198.57421875	47448.80078125	38943.0078125	40519.11328125	35882.41015625	38450.62109375	35782.8203125	39085.3203125	49201.24609375	41576.453125	33150.80078125	38799.06640625	36881.59765625	36054.63671875	43182.59765625	38561.1484375	39345.296875	39283.37890625	35712.0859375	30314.50390625	37870.6640625	35297.19140625	40076.1640625	37893.40234375	43462.265625	38272.5859375	36017.8125	36331.09765625	37873.046875	33682.87890625	42512.89453125	38541.5625	37562.03515625	34068.00390625	35037.87890625	39861.3046875	35791.69140625	44072.65625	33521.890625
900	1200	16076.810546875	21079.47265625	21945.79296875	29857.255859375	27287.78125	30942.69140625	27140.060546875	21360.18359375	21074.3125	26950.173828125	-108.46723937988281	24281.205078125	28382.296875	-2174.654296875	15729.244140625	20838.703125	22372.576171875	30255.041015625	25798.283203125	29789.044921875	26767.01953125	21320.091796875	29275.849609375	21301.275390625	28155.546875	4876.25927734375	1442.623291015625	7324.88232421875	19738.93359375	24405.130859375	-309.4396057128906	9408.0302734375	31089.4296875	32415.408203125	31569.630859375	41497.35546875	34174.859375	28315.072265625	28340.423828125	32064.03515625	28710.9140625	31522.498046875	31681.091796875	32198.70703125	33089.76953125	30877.470703125	21690.19921875	28831.818359375	31972.77734375	34283.5625	30265.669921875	35701.82421875	29396.638671875	31846.86328125	31008.32421875	30711.37890625	30377.291015625	35750.3125	32151.537109375	28152.322265625	29814.935546875	28980.05078125	37777.9296875	33797.56640625	34022.73046875	30649.900390625	30691.146484375	30126.447265625	31904.478515625	41194.73828125	37063.1328125	28722.3984375	31827.677734375	31660.857421875	31251.875	36141.5234375	31438.25	33039.13671875	32663.603515625	30229.06640625	25794.765625	31416.224609375	30681.53515625	33807.11328125	32095.869140625	35364.09375	31036.2421875	29855.34375	29849.5703125	31051.634765625	28218.501953125	35197.0234375	31984.623046875	29660.15625	29068.029296875	29421.52734375	29747.033203125	31381.37890625	36176.61328125	29200.849609375
1200	1500	16446.728515625	20204.8046875	17932.798828125	23891.80859375	20499.353515625	23468.982421875	26605.1875	19208.759765625	17153.462890625	25717.509765625	-30.504192352294922	15381.09765625	24794.6171875	-3085.060791015625	15976.8740234375	19358.96875	18246.431640625	25154.791015625	19530.94921875	23490.24609375	24264.056640625	18377.79296875	23952.529296875	18396.12109375	25194.814453125	3297.03564453125	827.0569458007812	7742.74853515625	15918.646484375	22385.052734375	120.95026397705078	9585.5693359375	24916.765625	25443.1953125	25165.31640625	35065.76953125	29846.759765625	24350.87109375	22476.798828125	27001.2109375	24596.41015625	25395.03515625	26303.341796875	27303.84765625	27236.3515625	25284.919921875	19325.38671875	23357.421875	26094.654296875	27630.494140625	24632.4609375	29697.283203125	23397.26171875	24945.623046875	24862.990234375	24656.609375	25274.322265625	28410.443359375	25879.552734375	22554.6015625	25123.708984375	23515.482421875	29816.462890625	28014.44921875	28328.3515625	26001.0234375	24845.71875	24536.349609375	25782.818359375	33296.38671875	29768.40234375	25230.455078125	25963.087890625	26458.2265625	25981.310546875	30102.62890625	26745.611328125	28490.939453125	26205.193359375	24825.990234375	23439.431640625	26450.05859375	24841.33203125	27223.05859375	26955.96875	28782.939453125	24573.279296875	25662.43359375	24044.466796875	26412.49609375	23702.171875	28977.275390625	25895.4453125	23425.908203125	24239.8515625	24177.72265625	25172.478515625	27389.64453125	29203.30078125	24072.568359375
1500	1800	16379.8740234375	18565.859375	14779.4072265625	19676.14453125	15302.666015625	19240.61328125	21556.677734375	16155.2041015625	14949.2490234375	19985.365234375	340.24151611328125	15329.279296875	22712.533203125	-4471.56201171875	16079.486328125	17857.51953125	15271.125	20428.912109375	15760.513671875	17961.8671875	22661.91796875	14718.0146484375	21253.26171875	11813.2548828125	23419.806640625	-1513.291259765625	172.23385620117188	8108.6845703125	12705.48828125	19991.287109375	202.1879119873047	9694.33203125	21307.0703125	22697.005859375	20147.724609375	27992.412109375	25002.216796875	21383.1796875	18595.51171875	23741.9765625	21256.240234375	20981.408203125	22713.30078125	23195.916015625	22943.041015625	21114.619140625	16927.365234375	20458.10546875	22073.826171875	24025.71484375	21508.74609375	23846.275390625	18976.103515625	20489.1484375	20274.421875	21404.228515625	20457.375	23672.6484375	21360.51953125	18462.705078125	20952.279296875	19938.779296875	27752.220703125	24503.634765625	24181.9921875	22719.349609375	22139.15234375	20828.583984375	21230.400390625	29939.14453125	25852.447265625	22140.681640625	21446.2578125	22791.83203125	21748.919921875	25275.12890625	23060.439453125	24390.685546875	23174.560546875	21044.125	19143.748046875	22536.345703125	21154.998046875	24359.982421875	21975.41796875	24000.580078125	20291.328125	22022.24609375	18854.66015625	22755.244140625	20701.416015625	24019.255859375	21645.861328125	18535.681640625	19971.4296875	20166.25390625	21245.17578125	23925.5078125	24650.62109375	21047.783203125
1800	2100	16192.2802734375	17217.232421875	12211.1796875	16219.1552734375	10817.9111328125	15237.0908203125	22434.0703125	14023.9248046875	12306.4033203125	18430.720703125	788.4808959960938	5938.578125	20075.8828125	-4202.484375	15725.91015625	16972.65625	12498.9599609375	16790.671875	10875.2236328125	15189.3759765625	18948.814453125	13908.490234375	17808.33984375	11835.3818359375	21134.53515625	-1516.8128662109375	-290.56195068359375	8258.234375	11011.1953125	17784.578125	394.5628662109375	9735.2890625	17136.935546875	20099.33203125	16446.744140625	25886.361328125	21233.5546875	19311.361328125	16058.6689453125	20908.599609375	18026.33984375	17579.958984375	20148.955078125	21377.96484375	18536.28125	17758.51171875	15742.7509765625	17393.416015625	19747.0625	19969.14453125	18118.19921875	20567.025390625	16123.671875	17516.15234375	16968.990234375	17945.587890625	17212.759765625	19471.66015625	17783.30078125	15461.6015625	17410.361328125	17099.90234375	23484.216796875	21112.12890625	21830.833984375	20249.5234375	19171.734375	17350.953125	16649.490234375	25519.818359375	23181.421875	20614.619140625	18577.966796875	20354.4375	18853.462890625	22242.048828125	20240.375	22081.18359375	18728.892578125	17858.71875	16552.8203125	20052.20703125	19223.951171875	22412.400390625	19191.185546875	20294.017578125	16913.26953125	17344.130859375	16352.7109375	19576.580078125	18303.8046875	20327.8359375	17891.384765625	16126.0107421875	17380.599609375	17567.818359375	20295.337890625	18395.82421875	16911.36328125	19022.80859375
2100	2400	15853.353515625	15678.353515625	10604.4443359375	14082.9169921875	7312.97216796875	12415.4326171875	20640.240234375	12347.392578125	11158.349609375	15843.33984375	1029.407958984375	5287.68115234375	17486.703125	-5282.12841796875	15379.1279296875	15348.126953125	10976.51171875	13913.78515625	9018.9052734375	12412.4189453125	17611.341796875	12150.9091796875	15115.5458984375	6804.09814453125	18033.240234375	-3071.2275390625	-620.5865478515625	8274.49609375	9856.4853515625	16441.068359375	762.4071044921875	9746.5859375	15949.5400390625	15894.828125	12718.158203125	22198.341796875	17878.875	17587.546875	13877.6318359375	19399.880859375	15825.0361328125	15568.908203125	17882.47265625	19737.59765625	16723.69921875	14941.451171875	13262.6142578125	14910.21484375	17849.8671875	19255.44140625	15482.29296875	15351.0029296875	13112.3564453125	14268.4052734375	14256.1123046875	16140.126953125	15947.6533203125	17036.96875	15090.220703125	12661.6064453125	15436.216796875	14589.4287109375	21572.130859375	19205.5546875	22295.46875	17630.01171875	16288.69921875	16140.7412109375	14871.60546875	23365.8828125	19778.52734375	18453.197265625	16323.888671875	18167.23046875	16103.46875	19530.6484375	18177.53125	19762.197265625	16867.431640625	16046.90234375	13785.2763671875	18194.607421875	17217.8671875	20119.009765625	16191.7890625	19801.70703125	14703.056640625	17464.8828125	13523.345703125	17916.935546875	16198.6259765625	17998.67578125	15150.6787109375	12942.1357421875	14380.4765625	15844.1328125	14026.41796875	15183.7275390625	18575.7109375	16868.09765625
2400	2700	15201.267578125	14829.14453125	9194.544921875	12510.1884765625	5888.93212890625	12322.98046875	15884.576171875	10785.4375	9742.75390625	13103.3134765625	1374.455078125	2052.302490234375	15142.30859375	-6305.22265625	14861.5224609375	13826.4814453125	9720.7041015625	12170.3525390625	7136.75341796875	10821.7607421875	17133.361328125	10259.3515625	14196.1982421875	2598.536376953125	17203.005859375	-6932.99755859375	-712.2567749023438	8294.2939453125	8627.33203125	15377.2587890625	1003.8391723632812	9623.72265625	14772.8544921875	15306.17578125	12664.8583984375	21123.2578125	17062.84765625	16315.3251953125	11807.5068359375	16875.314453125	13756.3662109375	13556.3701171875	15557.1630859375	17859.69921875	16976.28125	13703.3271484375	12382.4697265625	13811.85546875	16095.119140625	17490.59375	13951.69140625	14667.9599609375	11874.951171875	12865.9990234375	12769.2353515625	13628.8525390625	13205.3037109375	15030.9853515625	13445.0166015625	12063.021484375	13901.6044921875	13290.119140625	15725.7158203125	16902.49609375	16697.73828125	16381.9091796875	14864.7470703125	13396.5029296875	13433.0224609375	20272.841796875	17143.685546875	16936.966796875	14706.529296875	16110.6708984375	16936.150390625	17518.28515625	16360.4921875	18046.09765625	15226.7685546875	13969.029296875	12731.8603515625	16667.294921875	14943.029296875	17622.55859375	15069.052734375	18044.673828125	13152.3974609375	14003.1767578125	11653.75	15837.509765625	14786.9521484375	15881.93359375	13936.185546875	10900.7470703125	12993.302734375	13555.47265625	14456.1494140625	13493.03515625	17043.107421875	15155.205078125
