frame_start	frame_end	parasubiculum	HATA	fimbria	hippocampal_fissure	HP_tail	presubiculum-head	presubiculum-body	subiculum-head	subiculum-body	CA1-head	CA1-body	CA3-head	CA3-body	CA4-head	CA4-body	GC-ML-DG-head	GC-ML-DG-body	molecular_layer_HP-head	molecular_layer_HP-body	Lateral-nucleus	Basal-nucleus	Central-nucleus	Medial-nucleus	Cortical-nucleus	Accessory-Basal-nucleus	Corticoamygdaloid-transitio	Anterior-amygdaloid-area-AAA	Paralaminar-nucleus
0	30	1.5707	6.40955	28.46552	8.7945	39.06463	1.26256	36.57285	1.42374	7.9006	4.59109	3.62137	6.67207	8.22179	1.91671	9.78739	3.65924	14.10524	2.55448	15.45302	15.97306	47.62576	16.69754	26.89445	9.3352	40.38766	26.34174	19.62119	15.23448
30	60	3669.81461	3274.14035	3576.90412	3627.47623	3220.62585	3383.09364	4022.62094	3054.34522	3285.69368	3177.99237	3385.52874	4619.61306	3508.05922	4069.59244	3555.07024	3813.71865	3603.34109	3429.32816	3712.42603	2498.87158	4387.12183	4456.96108	3902.26815	4046.14472	4298.71239	3974.96664	7107.93331	3355.13393
60	90	12750.48248	12149.79638	12703.84796	12735.28592	12092.32376	12865.73804	13304.36979	11387.03275	11904.65123	11235.80771	12284.52687	13963.49122	12139.0019	12990.05421	12595.16395	12378.20178	12616.19387	12282.9337	12556.81022	10763.60472	12677.53508	13387.6935	11134.09207	11407.40536	13062.67253	13098.94813	17865.58495	10499.11493
90	120	20106.65832	19403.77731	23715.98974	22690.99035	20726.30474	20387.16563	22526.67205	20040.77774	23162.15255	21935.23202	21761.98767	23125.98544	22105.6414	23682.47653	23571.08365	23076.47198	23703.41195	22271.96185	23122.24609	19089.26961	22998.72903	20062.44666	17692.90175	17838.55018	21477.20804	19297.01373	25043.69518	20194.57471
120	150	27661.39193	27374.36025	36025.87934	33668.09079	28882.81838	31221.12271	32001.35143	30298.71459	31953.80687	30832.02464	32765.25629	36451.60783	35873.71473	33974.53339	35041.48161	33029.16052	34942.53187	32818.65389	34567.45532	28944.68568	30817.77355	27500.86646	24763.61469	25627.91211	29929.80694	27642.08736	32666.36697	27652.8306
150	180	31573.7686	32892.06138	37050.10625	37507.64438	33995.30644	37128.03697	32238.83481	35722.61977	35237.36896	35022.18007	35863.81422	37430.44307	36582.62081	37369.33338	38673.731	37035.80782	37926.11264	37747.48785	36747.30979	31427.1971	34016.36938	30807.06977	25936.39963	26212.31951	32575.89385	29971.418	31624.18924	34301.06628
180	240	29234.22358	28080.11154	34867.20571	34028.05502	32196.07573	34978.69034	30172.41127	33780.20598	33941.43881	33363.05948	33798.16039	34080.44686	32975.35738	36676.01347	35382.69396	35314.11668	34968.953	35679.11489	33805.77051	32207.04965	33480.52647	32768.67726	28534.00814	29637.13525	32034.62776	28189.50938	30289.06326	35079.66692
240	300	28038.34727	26955.64102	32066.92899	33780.85184	27794.66271	33431.74281	30743.80495	32465.31581	31888.28081	32276.56375	30682.92056	33081.22169	30097.43453	35620.36605	32477.31155	34205.33129	32337.81145	34614.44461	31639.55534	32688.09205	32665.96121	30211.81959	26168.64334	27636.47567	31261.11932	27273.14741	29459.6445	32470.43793
300	360	25463.75712	23775.99634	30858.88599	30369.65363	26142.43373	30630.91559	28559.2247	30977.6239	31551.27283	29043.62127	28422.1555	28213.4887	27621.65452	30513.77268	31530.52038	29926.32441	31419.3663	30593.23691	30147.66799	32623.23837	32301.34127	27863.69654	25187.10395	25571.24756	28938.70319	24879.47878	27688.55075	30954.45455
360	480	24321.29688	23304.51479	27010.69053	28844.21344	22883.3669	29621.68987	26233.03916	29518.4526	28592.23061	27514.00208	26814.13911	25197.19842	24558.17401	28079.54206	27527.41036	27700.02523	27713.46878	28875.83381	27007.74425	29394.07432	29944.98837	25649.69436	23307.72797	23834.87593	27364.40352	23494.99749	25301.48985	30087.19521
480	600	21239.9884	22445.67723	24709.3567	25229.79174	20289.88575	26155.9035	23197.27108	26065.20756	25137.72328	24833.38406	23618.04387	23141.69389	23113.16256	25300.36775	25035.90852	24961.78483	24960.43735	25928.35779	24283.31229	27367.91419	26511.23653	24332.9343	22509.04525	22990.05202	25829.29871	22790.30495	23162.95456	25816.46643
600	900	19027.50046	19425.99727	21922.18478	22633.44276	18219.12122	23109.69231	20556.3198	23534.93653	22645.51958	22037.37384	20780.21162	20012.21977	20224.85226	22389.26978	22031.96858	22031.05979	21961.28171	22847.40664	21362.49562	24327.70817	23909.44569	20706.15658	19620.74208	20980.63126	22005.13454	20433.9894	22472.44572	23499.38911
900	1200	16718.33146	19018.75008	20477.42628	20075.76943	16734.11213	20492.48375	18694.8148	21542.59509	20853.80854	19246.91947	19411.5574	18665.62459	19186.86902	19658.39951	20161.36478	19584.80779	20265.62919	20126.42115	19796.36806	22495.99612	20957.62522	20609.04232	20612.99881	21034.13699	20440.71336	18104.41086	20324.26645	20378.01015
1200	1500	14563.84225	17610.81783	18367.25831	17266.97903	14632.80466	17594.95752	16774.01357	19262.2865	17930.81475	17245.49402	16592.81842	16534.76642	17358.65385	17205.20634	17488.98565	17142.72714	17484.09457	17708.067	17209.17124	20224.68687	18224.23746	18734.2613	19189.90983	19348.58327	17975.5198	16633.35961	18449.67919	17821.82299
1500	1800	12558.29794	16266.78019	15966.17449	14907.44426	12699.45678	14967.32259	14650.25329	16678.77537	15955.71697	15192.00469	15237.42567	14145.29652	15341.52565	14309.74148	15339.05411	14723.74697	15536.79376	15179.43777	15265.63344	17465.66515	15298.64948	16602.08159	17083.30843	17226.88807	15739.11438	14850.2647	15795.63954	14709.7791
1800	2100	11845.68351	14509.15714	15282.60938	13797.45774	11393.93815	14042.06794	13240.98801	14875.48427	13775.38388	13820.55308	13604.99903	13238.33952	14814.275	12935.13347	13941.94865	13324.56647	14039.796	13923.24963	13862.49402	16101.90944	13544.12047	15026.52406	16149.83176	16146.52639	13779.47077	12953.56034	13092.28579	13666.04611
2100	2400	10293.77322	13457.25789	13882.19776	12146.17935	10547.42717	12350.99558	11766.14889	13477.33466	11683.83556	12563.17938	12265.12796	12267.50097	13304.46487	11658.87331	12147.89118	12062.05694	12254.47187	12555.95843	12233.68002	13492.00493	12252.72009	13750.33556	14759.22938	14544.8295	13179.40703	12364.78238	11830.88521	12083.19939
2400	2700	8144.96292	13154.14151	12445.57101	10410.4862	9686.51043	9612.77772	10538.96051	11126.2	11084.87702	10964.32259	11499.81673	12093.30239	12730.65645	10592.33712	11624.69132	10868.1775	11516.85098	10683.56225	11413.96826	12643.68686	10912.21567	13155.242	14155.76432	14477.00457	11908.82974	11466.25651	9625.30726	10730.66517
2700	3000	8647.12156	11912.69685	11793.03307	9757.69087	8752.30038	9469.65296	9904.34115	10207.25766	10588.08342	10289.00871	11464.60469	11053.84661	12702.74181	9811.8282	11460.81574	10074.49081	11181.08922	10119.96685	11210.41822	10964.05649	9503.69463	11749.87581	12155.5772	11826.44256	10867.16765	10695.30659	9730.03455	8805.09969
3000	3300	8554.81418	10958.79631	11184.61615	10129.29542	8669.1308	10010.88226	9470.99206	10456.09825	9464.68845	9947.13602	10377.009	10801.74557	11366.0756	10300.28381	10144.36505	10368.48719	10146.0124	10108.67218	10201.63797	10503.48551	9596.99389	11614.71401	12689.82113	11910.86996	10495.18842	10145.7957	8932.72879	9223.74099
3300	3600	6577.14985	10492.43215	9564.66902	7452.90299	7586.34912	6857.32989	8045.10146	8107.92363	8793.018	8309.91232	10135.70913	9323.04175	10254.17435	7826.87935	9122.62357	8029.46941	9105.79077	7727.78581	9162.84001	10672.53987	8772.23104	10314.20174	9825.06912	10423.56845	9324.61322	8759.40568	8234.74404	7734.45023
3600	3900	6472.85724	10194.99579	9639.36826	7481.6835	8059.29038	6811.72468	8025.96449	7511.07822	8143.09788	8386.60391	9724.69938	9280.9501	10532.12308	8015.70826	8991.7073	8145.57547	8990.84235	7670.51045	9058.34992	9030.37451	8961.70908	9735.76294	9941.94341	10122.76261	10137.12092	9672.57992	7945.86877	7903.23033
3900	4200	7460.66942	10730.79272	9228.05243	7469.61669	6468.34235	7090.23263	8077.58376	7712.2829	8088.13488	8711.55296	8331.66197	8646.45991	9152.30074	6937.74499	8411.4851	7659.5181	8393.83261	7712.17444	8401.66559	9209.01615	7828.14773	7752.27183	8843.83827	9405.24925	8847.26476	9317.29583	8003.73911	7984.07756
4200	4500	6036.26909	10058.17685	9084.62662	7082.99674	6569.4574	7281.03637	7304.71577	8269.45655	7573.06888	6918.89179	8275.017	8983.66802	9255.39991	7952.77331	8351.78637	7886.74417	8183.66283	7177.14534	8027.47483	7749.67342	7285.29491	8425.33458	7824.15413	8243.06921	8354.9669	8464.42891	6776.86359	6192.82802
4500	4800	5580.0151	8423.74656	8355.12429	5693.50741	5965.18637	5048.54778	5919.81113	6236.47287	6436.665	7003.46912	7463.58458	7754.57995	8493.68853	6205.70027	7106.0589	6455.56381	7273.7991	6087.57773	7118.11239	7486.95665	6189.33057	9374.54873	7961.50675	8429.29319	7863.39158	7182.37913	6003.41817	5510.58244
4800	5100	6069.4247	7921.34496	6868.95365	6466.34245	6318.5801	7148.4917	5836.79933	7698.61382	6029.70824	6419.96503	6746.62803	7637.01387	7633.57341	6137.62014	6168.76437	6430.35773	6139.23819	6670.32028	6240.31145	6433.91419	5714.39001	8988.67585	9852.89366	9514.35126	8277.19633	7673.98669	5682.47727	4622.6177
5100	5400	5379.34568	7060.55408	7806.13028	5954.31678	6121.50395	5460.0642	5888.22886	5321.19117	6433.69775	6615.57984	6619.88936	6850.90137	7677.42661	6092.17258	6465.47581	6331.84186	6583.48741	5711.32816	6600.37907	6457.31551	6964.84052	6678.8275	8077.44265	6488.55838	6601.43607	6870.83839	6297.96592	5986.5809
