frame_start	frame_end	Left-Cerebral-White-Matter	Left-Cerebellum-White-Matter	Left-Cerebellum-Cortex	Left-Thalamus	Left-Caudate	Left-Putamen	Left-Pallidum	Brain-Stem	Left-Hippocampus	Left-Amygdala	CSF	Left-Accumbens-area	Left-VentralDC	Left-choroid-plexus	Right-Cerebral-White-Matter	Right-Cerebellum-White-Matter	Right-Cerebellum-Cortex	Right-Thalamus	Right-Caudate	Right-Putamen	Right-Pallidum	Right-Hippocampus	Right-Amygdala	Right-Accumbens-area	Right-VentralDC	Right-choroid-plexus	AirCavity	Skull	Vermis	Pons	CSF-ExtraCerebral	Head-ExtraCerebral	ctx-lh-bankssts	ctx-lh-caudalanteriorcingulate	ctx-lh-caudalmiddlefrontal	ctx-lh-cuneus	ctx-lh-entorhinal	ctx-lh-fusiform	ctx-lh-inferiorparietal	ctx-lh-inferiortemporal	ctx-lh-isthmuscingulate	ctx-lh-lateraloccipital	ctx-lh-lateralorbitofrontal	ctx-lh-lingual	ctx-lh-medialorbitofrontal	ctx-lh-middletemporal	ctx-lh-parahippocampal	ctx-lh-paracentral	ctx-lh-parsopercularis	ctx-lh-parsorbitalis	ctx-lh-parstriangularis	ctx-lh-pericalcarine	ctx-lh-postcentral	ctx-lh-posteriorcingulate	ctx-lh-precentral	ctx-lh-precuneus	ctx-lh-rostralanteriorcingulate	ctx-lh-rostralmiddlefrontal	ctx-lh-superiorfrontal	ctx-lh-superiorparietal	ctx-lh-superiortemporal	ctx-lh-supramarginal	ctx-lh-frontalpole	ctx-lh-temporalpole	ctx-lh-transversetemporal	ctx-lh-insula	ctx-rh-bankssts	ctx-rh-caudalanteriorcingulate	ctx-rh-caudalmiddlefrontal	ctx-rh-cuneus	ctx-rh-entorhinal	ctx-rh-fusiform	ctx-rh-inferiorparietal	ctx-rh-inferiortemporal	ctx-rh-isthmuscingulate	ctx-rh-lateraloccipital	ctx-rh-lateralorbitofrontal	ctx-rh-lingual	ctx-rh-medialorbitofrontal	ctx-rh-middletemporal	ctx-rh-parahippocampal	ctx-rh-paracentral	ctx-rh-parsopercularis	ctx-rh-parsorbitalis	ctx-rh-parstriangularis	ctx-rh-pericalcarine	ctx-rh-postcentral	ctx-rh-posteriorcingulate	ctx-rh-precentral	ctx-rh-precuneus	ctx-rh-rostralanteriorcingulate	ctx-rh-rostralmiddlefrontal	ctx-rh-superiorfrontal	ctx-rh-superiorparietal	ctx-rh-superiortemporal	ctx-rh-supramarginal	ctx-rh-frontalpole	ctx-rh-temporalpole	ctx-rh-transversetemporal	ctx-rh-insula
0	30	11.791695594787598	13.827115058898926	17.853832244873047	2.570831775665283	38.65198516845703	16.79684829711914	-9.523300170898438	14.386438369750977	46.42850875854492	80.16233825683594	2.5972647666931152	110.71446990966797	21.06630516052246	-23.557415008544922	9.690065383911133	10.583913803100586	18.03653335571289	9.111766815185547	0.021943189203739166	13.831612586975098	1.6490700244903564	17.577207565307617	0.30288806557655334	-26.512115478515625	97.3068618774414	22.42166519165039	10.069184303283691	21.636449813842773	-0.5324122905731201	30.400863647460938	-0.7592538595199585	14.61259651184082	-3.2511563301086426	-26.836740493774414	6.3580451011657715	-1.2193397283554077	22.426237106323242	-3.5212419033050537	14.56728744506836	13.921756744384766	46.25436019897461	-3.5091392993927	-3.835439920425415	13.047354698181152	10.400035858154297	4.370758056640625	-20.11425018310547	15.143095016479492	-6.663359642028809	81.7561264038086	-16.88201904296875	-7.004600524902344	1.2765966653823853	26.231504440307617	6.515007019042969	37.996070861816406	23.28024673461914	28.244094848632812	18.131418228149414	-8.657326698303223	21.64389419555664	6.3550496101379395	-32.263885498046875	14.269556999206543	23.29737663269043	19.026378631591797	10.87778377532959	40.70509338378906	-3.2815237045288086	15.010137557983398	-22.590137481689453	28.440683364868164	10.254263877868652	42.098777770996094	10.469931602478027	17.136470794677734	9.300630569458008	14.930842399597168	15.748744010925293	30.48448371887207	11.87309741973877	33.02970504760742	8.954217910766602	13.957337379455566	14.63776683807373	24.73858070373535	10.628351211547852	-5.593991279602051	25.185346603393555	20.521574020385742	-0.3949746787548065	19.267610549926758	15.38444995880127	7.602659225463867	11.587738037109375	19.323942184448242	-34.36914825439453	17.780614852905273	14.705971717834473	43.27387619018555
30	60	1161.794189453125	1821.12255859375	3583.18603515625	4637.63671875	4564.1962890625	5197.9794921875	2566.61865234375	3479.714111328125	4373.755859375	4142.6953125	252.28916931152344	5620.65673828125	3134.466552734375	2085.42041015625	1326.8385009765625	1629.92138671875	3656.267578125	4493.28857421875	4364.4716796875	4853.11376953125	2740.433837890625	4052.00146484375	3889.418701171875	5042.6982421875	2819.09619140625	2401.5927734375	910.9857788085938	955.8621215820312	2946.985595703125	2644.188232421875	2772.0068359375	908.5927124023438	4837.8828125	7966.5546875	6719.8125	6865.86865234375	6435.14208984375	3844.748046875	3949.531005859375	4948.14306640625	5787.71142578125	4612.85009765625	4458.47998046875	5314.8515625	7382.35693359375	4483.60498046875	4452.515625	4498.88818359375	6865.115234375	5924.9873046875	6196.2294921875	9560.2744140625	5065.40478515625	7069.05908203125	4881.126953125	5091.00732421875	6027.35546875	5741.01953125	5061.884765625	3463.310546875	6410.7685546875	5169.22802734375	7748.2451171875	3511.038818359375	14702.3271484375	5629.11865234375	6145.4619140625	5422.50146484375	4575.646484375	5456.9501953125	5342.04833984375	3250.165283203125	4130.16943359375	4231.4345703125	4430.4521484375	4066.3291015625	5572.88232421875	4492.7900390625	4677.7392578125	4156.35888671875	3851.252685546875	4570.8427734375	5812.23779296875	5181.11669921875	6013.26611328125	6816.41943359375	4017.86865234375	6496.9248046875	4255.26318359375	4915.9365234375	4604.7666015625	5175.41943359375	5356.42529296875	2862.08154296875	5680.09765625	4843.4501953125	7598.3330078125	5303.86767578125	12243.115234375	6225.49462890625
60	90	4925.20263671875	8453.462890625	16082.0556640625	20854.994140625	19548.51953125	24198.71875	9751.580078125	12306.388671875	15717.8828125	14938.4208984375	719.2572631835938	17155.896484375	12784.0068359375	13826.6767578125	5094.45556640625	8703.5751953125	16476.896484375	19213.42578125	19824.37109375	23530.96875	9935.486328125	15535.380859375	13693.9931640625	22758.85546875	13552.92578125	11850.751953125	3070.40625	3811.41943359375	12027.095703125	11164.109375	6396.705078125	3911.223876953125	23911.048828125	29306.052734375	24724.19140625	28651.359375	21799.326171875	16842.091796875	21371.216796875	22211.419921875	22155.453125	22855.63671875	21931.09375	26758.921875	27094.5390625	20091.125	16419.060546875	18692.10546875	28955.08984375	26569.056640625	26695.01171875	38538.171875	22534.091796875	34272.87890625	25049.134765625	26708.021484375	22237.9296875	26408.9140625	24872.19921875	19402.884765625	23174.8046875	23312.005859375	30496.998046875	16852.087890625	42181.75390625	21137.646484375	27086.46875	26968.08203125	23121.90234375	28049.37109375	23880.39453125	16078.8232421875	22008.517578125	18257.34375	26196.505859375	24868.87890625	23184.240234375	23629.865234375	23171.73828125	19473.892578125	12552.1943359375	23584.55859375	25811.81640625	27039.9609375	25341.341796875	34330.5390625	22144.83203125	27219.001953125	22783.833984375	23674.107421875	20042.349609375	25726.615234375	23706.42578125	20944.099609375	20838.13671875	22303.93359375	34238.35546875	18468.46484375	47991.4609375	22302.59765625
90	120	9927.0966796875	16732.541015625	32663.962890625	41025.8359375	39369.0625	49718.1484375	18740.5078125	23211.625	31019.19921875	26255.45703125	1415.4774169921875	40246.73046875	24821.58984375	17965.271484375	9795.111328125	15987.8828125	34550.9921875	38771.44140625	39251.44140625	46512.33984375	18337.767578125	31697.5	28730.19921875	41504.4375	27672.1796875	14915.54296875	6104.15673828125	6890.18212890625	28565.56640625	24175.41796875	8463.1728515625	7432.61865234375	50111.59765625	58184.9609375	53733.5859375	65132.6171875	42122.6015625	34626.73046875	44099.09375	45329.1171875	51703.50390625	47016.0703125	45389.6640625	50968.328125	51806.24609375	39591.375	32705.34765625	43504.53125	54463.234375	57820.3984375	54315.390625	77030.328125	47396.2421875	60367.2421875	50968.58984375	53338.4453125	45533.796875	56389.6015625	51277.9453125	41118.7890625	44056.046875	47506.37890625	68073.546875	32659.1015625	82684.984375	38253.38671875	51394.16796875	46492.82421875	46837.3828125	58039.87890625	41720.171875	33526.6640625	47284.73828125	40644.5390625	46637.91015625	51199.66015625	46892.12109375	50292.75	50110.625	40283.109375	28626.609375	48710.2890625	49399.9921875	53990.70703125	50552.2421875	73338.4765625	48204.1875	56610.6640625	48307.88671875	52448.5625	37622.4140625	54408.69921875	50324.625	45000.91796875	39826.51171875	45948.58984375	66666.6640625	38393.60546875	88008.84375	38836.9140625
120	150	13378.9326171875	23799.974609375	47663.640625	58480.4296875	59348.4140625	70827.734375	25579.4609375	33521.203125	42233.19140625	39485.75	1582.3651123046875	65296.16796875	35945.5	23731.28515625	13520.580078125	23083.783203125	49301.65234375	56404.73828125	60992.55859375	66911.25	25827.751953125	41361.0390625	38215.24609375	44562.109375	38261.5	29717.4375	7368.42822265625	9174.4833984375	38136.1953125	36205.7421875	6193.14404296875	10233.7001953125	73723.9609375	83130.2890625	77639.46875	95933.171875	54226.6640625	48262.87890625	62381.30859375	66840.9921875	74765.515625	71385.8203125	67834.109375	77781.34375	72181.546875	60142.2265625	46142.34765625	65225.82421875	80437.484375	82618.734375	77968.5546875	109467.90625	70098.21875	89544.921875	75473.2265625	76740.6484375	70503.375	84065.0390625	76861.8203125	67557.9296875	61147.12109375	70474.4765625	90462.8671875	52451.01171875	110959.234375	52518.125	75565.7421875	68845.1640625	74523.9375	85580.4296875	61565.8828125	48370.796875	69960.359375	59804.81640625	74395.59375	77787.2578125	69010.875	72829.359375	71172.359375	61250.96875	44158.62890625	73014.171875	76416.6328125	81433.3828125	71996.3515625	108828.265625	74918.2109375	78019.1484375	70973.7734375	77373.2734375	53070.921875	80239.15625	74992.3515625	70339.4921875	57781.0234375	68151.09375	99530.9921875	50237.890625	117180.71875	54094.39453125
150	180	15346.8408203125	27100.560546875	54521.82421875	62561.765625	65876.09375	81557.734375	32336.0546875	36046.27734375	45965.8671875	42695.22265625	1546.615478515625	57757.32421875	43614.42578125	20948.765625	15187.416015625	26415.27734375	55576.515625	60534.12109375	72198.9453125	76296.5859375	30609.5703125	44091.99609375	43478.03125	50873.75	46602.16796875	31226.58203125	7819.8564453125	9631.4892578125	44462.2265625	40096.47265625	2488.324462890625	11516.236328125	84611.0546875	88979.8828125	89747.6875	112199.203125	58912.71875	55841.60546875	74847.3984375	74270.9921875	84957.1484375	82493.171875	75630.640625	84846.328125	80270.7109375	70163.1015625	47910.875	74369.3203125	90192.0390625	95563.7109375	87808.7109375	128212.7734375	79876.21875	97833.3359375	84824.1171875	89412.53125	73110.25	94645.2578125	86583.671875	77647.3359375	67499.453125	79206.9375	102270.90625	59620.11328125	121192.2734375	62385.66015625	87534.609375	73520.1015625	86663.7578125	103498.6796875	65120.015625	55348.76953125	83692.671875	71743.4765625	80544.3515625	93469.8203125	76410.6640625	80578.171875	74499.2265625	71059.21875	52746.3125	85152.78125	85721.328125	94016.375	81614.46875	126150.546875	85532.3828125	88241.171875	83693.78125	86575.796875	66801.3359375	91728.7890625	85052.7890625	81354.6328125	64661.1953125	78655.203125	110950.9921875	56882.89453125	128240.6171875	60200.4765625
180	240	15786.640625	28052.017578125	54494.72265625	63485.29296875	68068.6796875	82475.5078125	30695.177734375	36878.37890625	44420.03125	46492.203125	1230.0074462890625	56374.62890625	43642.6328125	8686.0068359375	15565.107421875	26859.41015625	56046.1640625	62252.78125	69171.546875	80710.265625	31562.685546875	44732.875	47330.05859375	56464.5625	47260.33984375	18351.990234375	7337.0478515625	9410.4931640625	43524.10546875	41495.7421875	-686.3232421875	11635.0244140625	79239.8828125	91726.2578125	90262.359375	113322.5625	61096.4453125	55891.05078125	76266.4921875	76244.6953125	82934.1328125	85131.1796875	78835.390625	86468.6953125	80104.15625	71423.4453125	54887.015625	79613.03125	90961.84375	94349.5703125	88495.453125	130562.078125	82909.15625	97224.8828125	84674.8203125	88116.296875	75035.078125	95832.8046875	87393.265625	81298.9921875	66634.7265625	79836.5703125	101052.9921875	58164.0546875	114287.8515625	62194.02734375	86146.6484375	74876.796875	88118.1953125	100143.3046875	66753.8359375	58068.796875	85398.5390625	71918.171875	78846.9375	95245.0078125	77503.125	84406.2890625	77191.6875	72124.1875	52609.35546875	82423.015625	86885.6015625	91452.0703125	84901.0078125	126446.46875	88355.5390625	88072.5234375	86485.1796875	88637.34375	62769.8203125	93853.796875	86733.5625	85687.2265625	65271.9140625	80773.765625	114526.34375	55623.48828125	114435.7578125	57887.5
240	300	16145.125	26968.359375	52470.703125	61388.4453125	64166.27734375	78398.265625	27622.111328125	36073.7265625	41403.83984375	45894.7578125	1406.5421142578125	54552.65234375	42235.71484375	-454.0489196777344	15865.3076171875	26098.564453125	53546.40625	59023.46484375	68946.9453125	76448.4765625	31930.515625	41796.5625	45090.296875	47948.72265625	45424.11328125	8457.8818359375	6246.8310546875	9121.8701171875	41438.171875	40432.515625	-1950.1246337890625	11574.330078125	75225.125	84429.9765625	84323.5859375	104756.03125	61170.4140625	55821.41015625	71866.3125	73058.0546875	78812.625	78733.46875	74600.5625	81269.4375	75351.6328125	68938.3359375	52175.94140625	73902.46875	85640.953125	89420.890625	83678.234375	115488.1953125	78152.40625	89297.15625	79909.203125	84667.5078125	71442.7578125	90236.28125	83095.390625	76568.2890625	63763.0390625	74168.4765625	93186.1796875	57987.1484375	107412.875	58853.87890625	84484.0859375	70799.21875	83638.6640625	98320.140625	69482.7890625	56476.99609375	81171.5234375	69717.4453125	76087.9609375	90536.59375	75163.125	77602.9453125	73300.34375	69363.3125	50628.26953125	80835.0625	80393.78125	87260.2109375	80832.6640625	113439.0546875	82842.4296875	85108.0390625	79916.546875	83155.75	62011.828125	89121.90625	83140.8515625	82554.8828125	63141.17578125	78052.125	105232.609375	57911.72265625	109454.28125	56095.41796875
300	360	16206.05859375	26458.3984375	48455.4453125	57306.3984375	59261.59375	72516.0859375	34772.60546875	34525.3046875	39790.5078125	43687.5859375	954.8731079101562	61136.1015625	42341.26171875	-2008.561279296875	15834.763671875	25335.224609375	50065.3515625	56989.55859375	64940.91796875	72758.515625	27723.033203125	39798.8828125	45793.20703125	46078.81640625	44046.765625	6912.88037109375	5478.71484375	9044.1220703125	36796.1796875	39564.9609375	-2701.812744140625	11580.3984375	71143.1484375	76059.7265625	78775.765625	96184.453125	57092.75	53260.4296875	66827.4296875	68719.7265625	69750.25	72784.328125	68994.7890625	75362.359375	70198.7890625	62558.68359375	49647.47265625	68444.625	78446.515625	82076.8046875	76104.484375	101963.546875	72204.3359375	82582.3359375	74749.25	77147.75	68932.734375	83780.65625	77145.9609375	71486.4140625	61839.4921875	68440.8828125	84982.5625	57576.11328125	94096.6171875	57014.11328125	75186.96875	64625.734375	76604.3984375	86578.34375	61520.26953125	55092.83203125	75458.609375	65349.73828125	70928.90625	83613.0546875	68776.3515625	72988.078125	70860.7734375	64986.15234375	44014.16015625	74474.2734375	76025.765625	80450.4140625	74615.9921875	101979.6171875	77946.046875	79202.1015625	74256.53125	79386.4296875	56384.96875	83163.8359375	76462.2109375	76122.3359375	60357.62890625	71855.484375	101839.03125	54208.91015625	88706.234375	55358.30078125
360	480	16216.11328125	24853.9921875	42931.890625	51470.21484375	51685.51171875	65619.4296875	31730.919921875	31597.322265625	33796.99609375	43551.17578125	913.7748413085938	44989.58984375	40799.8125	-6047.6220703125	16100.7802734375	25456.47265625	43984.8984375	51042.14453125	54990.99609375	62304.109375	30912.677734375	35664.22265625	43216.94140625	46577.5546875	40786.66015625	-8697.91015625	4360.20947265625	9000.2626953125	33749.99609375	34943.234375	-2909.298095703125	11261.3544921875	60051.45703125	67776.0078125	67375.75	83003.703125	56048.54296875	47520.96484375	57379.64453125	61571.7734375	61210.8671875	61862.84375	60481.5234375	66724.0078125	60505.92578125	55988.87109375	44801.63671875	60754.3046875	65582.421875	69637.359375	67862.5078125	84233.5546875	61606.54296875	70164.53125	63828.94921875	66420.5390625	60966.24609375	71232.25	66902.25	61915.4140625	54900.890625	59693.9765625	75945.8125	50312.234375	77242.375	51925.22265625	65639.0859375	57398.61328125	65696.3671875	79474.875	55907.07421875	49111.3671875	65130.2578125	58893.16015625	62250.59375	72472.4765625	61478.828125	61887.703125	59729.06640625	57784.51171875	46493.52734375	62227.63671875	63555.1015625	68903.9609375	63065.0	83508.2734375	65066.55859375	66097.640625	64362.03515625	67809.15625	51010.71484375	70972.8984375	65954.3515625	65883.3203125	54054.37109375	62086.15625	84518.53125	50003.0078125	78481.140625	49730.55078125
480	600	16884.359375	23053.162109375	35541.1171875	43401.09765625	40350.86328125	51042.578125	30062.123046875	27849.8984375	28813.580078125	38583.85546875	1041.92822265625	34452.62890625	37573.421875	-13796.517578125	17159.36328125	23277.5	36710.50390625	43258.65234375	42077.32421875	50290.41796875	29827.189453125	28733.5078125	40586.0859375	39785.98828125	39833.0390625	-17347.66796875	3422.740234375	8640.6572265625	30383.919921875	31068.490234375	-3079.255859375	10886.0244140625	48524.484375	55754.03515625	53838.8671875	69050.7734375	44797.6796875	41205.984375	46540.5	52297.171875	51920.33203125	50292.35546875	48245.25390625	54868.12890625	51773.078125	47261.54296875	39046.70703125	51465.37109375	53963.83203125	59727.1640625	54210.63671875	63668.1484375	50563.71484375	56368.3828125	52566.3359375	54210.81640625	50018.859375	57783.515625	53857.2578125	50839.58203125	46064.68359375	49062.9609375	68921.609375	46443.99609375	58574.3671875	47532.40625	54826.33203125	46946.55078125	53237.19921875	65141.484375	49691.34375	41725.81640625	54132.3984375	49571.28125	51696.671875	57929.94140625	47951.65234375	50143.44140625	47480.44140625	48123.703125	38858.11328125	54024.75390625	51973.29296875	59183.01171875	50738.2109375	63403.359375	53832.9765625	54322.61328125	52336.2578125	56275.4921875	42691.640625	57319.69140625	54064.38671875	53338.12109375	45590.55078125	51768.2578125	71489.8359375	46122.4140625	58513.94140625	43096.62109375
600	900	16710.373046875	22080.376953125	27482.28515625	35248.99609375	29914.8359375	40356.48046875	28921.89453125	24202.568359375	23757.955078125	34697.78125	592.77001953125	33479.49609375	32482.232421875	-11301.158203125	16380.841796875	21135.697265625	28351.791015625	35659.390625	32888.37109375	38674.6328125	27463.107421875	25203.625	33423.3125	30042.26953125	34167.453125	-13510.0029296875	2126.322021484375	8551.6572265625	23393.669921875	27714.20703125	-2758.208251953125	10731.056640625	38156.84375	41892.72265625	39436.99609375	55064.7109375	39022.68359375	33964.8828125	35485.37109375	41930.2578125	39935.921875	37109.58203125	38910.21484375	41338.421875	39908.4921875	36428.1875	31543.765625	39851.26171875	41199.8515625	46089.9140625	40995.0625	43765.96875	37743.79296875	41980.85546875	39984.26953125	41309.796875	37628.39453125	44139.91015625	41323.11328125	38029.3046875	36958.83203125	37183.74609375	50328.828125	38542.49609375	43527.40234375	38410.66015625	41242.87109375	38788.16796875	40204.4140625	49993.08984375	43664.66015625	35370.0703125	41740.359375	39559.12109375	38686.4140625	45889.83984375	38923.28515625	40326.8125	37236.11328125	37996.61328125	31933.326171875	42107.30859375	39343.07421875	46068.48828125	39323.3515625	46244.8828125	41397.16015625	40681.7109375	39613.41015625	43425.03125	34752.453125	44752.54296875	41809.33203125	40136.625	36376.5	39829.2890625	52813.30078125	37749.1171875	42374.8515625	36449.21875
900	1200	16830.26953125	20621.837890625	20295.953125	26555.041015625	20849.732421875	29153.087890625	28085.462890625	20515.79296875	19287.037109375	27605.712890625	556.6925659179688	24011.74609375	27817.322265625	-6424.734375	16456.310546875	20258.736328125	21065.791015625	28385.84375	23205.6953125	27286.431640625	26771.34375	19369.30078125	29740.533203125	22151.400390625	29015.43359375	-10351.775390625	1205.6971435546875	8876.404296875	16986.994140625	24248.216796875	-2047.775634765625	10551.62890625	28465.91796875	30671.294921875	28990.734375	41229.21875	33849.79296875	27003.041015625	25251.70703125	32339.015625	28913.40625	27195.310546875	29542.587890625	32879.68359375	29109.2265625	27387.8125	25711.658203125	30153.478515625	30811.640625	34622.83203125	29063.1875	30410.89453125	27688.68359375	29296.974609375	29806.490234375	31203.62109375	28828.49609375	32416.181640625	30955.044921875	27131.361328125	27657.8828125	27172.521484375	37692.734375	30559.501953125	30568.947265625	31151.478515625	29660.0625	29693.89453125	29191.84375	38615.22265625	33836.24609375	28152.2109375	31342.236328125	30514.791015625	30506.599609375	35365.63671875	30262.552734375	31708.53515625	30189.703125	28653.9375	24605.9609375	32619.912109375	29199.5859375	34058.6484375	29769.31640625	32767.5625	30019.73046875	29580.951171875	28800.841796875	31734.150390625	27042.302734375	33183.1875	31042.28515625	28665.533203125	28607.95703125	29401.900390625	36604.19140625	30043.373046875	32511.44921875	28850.140625
1200	1500	17039.087890625	19708.087890625	16602.68359375	22000.58203125	16523.392578125	22028.154296875	25702.7890625	17840.623046875	15752.3857421875	23245.26953125	573.7307739257812	14928.1220703125	24895.3203125	-5106.3359375	16656.18359375	18885.333984375	17179.814453125	22957.798828125	18313.8359375	22111.609375	24305.361328125	16656.75	23735.212890625	17879.220703125	25811.642578125	-5773.85400390625	631.6349487304688	9122.3525390625	14621.080078125	21746.123046875	-1325.0950927734375	10578.59765625	22695.02734375	25272.64453125	23055.177734375	33700.12109375	28541.482421875	22945.9609375	20735.34375	27081.41796875	25432.048828125	22028.28125	25240.51171875	27640.912109375	24768.923828125	22389.6953125	21451.3515625	25271.099609375	25281.712890625	28420.759765625	24004.427734375	25578.17578125	22128.146484375	24175.35546875	23925.302734375	25060.59375	22670.841796875	26802.900390625	25054.99609375	21859.896484375	23920.09375	22401.580078125	30843.25390625	26385.775390625	26175.4453125	26156.466796875	23151.453125	25404.462890625	24076.087890625	33624.76953125	28821.171875	24424.685546875	25863.34375	25120.58203125	26022.5	29107.451171875	25544.279296875	27143.57421875	24577.337890625	23560.4453125	21088.44921875	26819.451171875	24653.96875	28036.439453125	24173.388671875	27533.298828125	24075.109375	23402.236328125	23608.662109375	26730.326171875	24625.9609375	27586.302734375	25334.8515625	23119.455078125	23918.19921875	24186.865234375	29477.732421875	24184.4375	27465.955078125	24260.15625
1500	1800	16716.986328125	18694.689453125	13923.240234375	18745.634765625	13105.2509765625	17710.955078125	23146.396484375	15752.21484375	13841.8759765625	20830.6796875	794.6691284179688	11197.2265625	21958.123046875	-5784.2470703125	16337.2421875	18182.0703125	14363.125	19642.349609375	14166.419921875	18902.66796875	23078.81640625	14924.775390625	21164.84375	12036.595703125	22095.779296875	-5818.6279296875	454.9501953125	9306.1689453125	12941.3603515625	19942.837890625	-936.9525756835938	10589.2421875	20138.873046875	21708.880859375	20194.89453125	29880.623046875	24534.33984375	20989.67578125	17580.443359375	24081.02734375	20543.908203125	19078.8203125	22576.11328125	23778.294921875	20926.568359375	19230.44140625	17004.3515625	21378.2265625	22487.720703125	24615.259765625	21527.28125	20870.22265625	19050.421875	20517.974609375	20542.341796875	22079.896484375	20168.8359375	22982.6015625	21463.8515625	18386.60546875	19868.0546875	19191.51171875	24899.11328125	22397.087890625	25550.58984375	23226.048828125	20782.517578125	20985.658203125	20916.107421875	27594.771484375	24594.642578125	21362.69140625	22066.13671875	22462.5234375	23457.42578125	25452.46484375	21873.568359375	25176.66015625	22610.853515625	20430.947265625	18698.482421875	23805.5078125	22960.4375	25023.23046875	20638.357421875	22921.61328125	20388.498046875	20598.888671875	19804.365234375	23538.771484375	21722.041015625	23584.654296875	21729.4140625	19192.580078125	20192.98046875	20825.99609375	25723.224609375	22137.244140625	25324.31640625	20897.826171875
1800	2100	16283.2041015625	17527.802734375	11746.3369140625	15478.3984375	10270.470703125	15122.1435546875	20554.150390625	13888.9462890625	12022.3330078125	16731.140625	876.9505004882812	5799.6484375	18664.98046875	-4065.396240234375	15899.0185546875	16585.822265625	12530.0791015625	16627.439453125	11911.9794921875	14245.919921875	19606.693359375	12282.8037109375	17335.349609375	11738.2861328125	20367.439453125	-4902.4208984375	-85.32621002197266	9318.283203125	11097.1533203125	18312.1484375	-564.6864013671875	10535.927734375	17443.041015625	18274.546875	17139.75390625	25843.376953125	21216.77734375	19664.486328125	15202.0166015625	21222.087890625	20104.9921875	16360.771484375	19144.185546875	22465.2265625	18693.896484375	16926.939453125	17211.271484375	19566.544921875	20182.07421875	20816.484375	17703.193359375	19040.904296875	15373.9794921875	18146.484375	17616.673828125	19166.146484375	17042.244140625	20082.775390625	18594.23828125	16135.6650390625	17331.216796875	17159.814453125	21175.927734375	20902.71484375	22885.48828125	20780.94921875	18834.171875	19104.37890625	17868.66796875	23513.630859375	22024.509765625	19370.91015625	19890.92578125	19480.701171875	20112.130859375	22632.486328125	19554.609375	22333.6171875	19762.541015625	18206.005859375	16636.6953125	20329.357421875	19286.5703125	21169.9375	18271.767578125	21779.6328125	17248.646484375	18751.232421875	17069.185546875	20591.05078125	18398.263671875	20948.748046875	19791.099609375	16933.955078125	18020.50390625	19093.208984375	20898.861328125	19441.83984375	21719.107421875	19035.740234375
2100	2400	15889.6572265625	15769.3076171875	10383.294921875	14037.3759765625	7966.05322265625	13158.5703125	18564.224609375	12319.349609375	10617.548828125	14429.6552734375	1033.945556640625	5791.78515625	17937.8671875	-6124.482421875	15421.083984375	15583.7841796875	10870.2119140625	14221.3759765625	10167.080078125	12900.0556640625	17523.7578125	11282.603515625	14942.572265625	6973.75927734375	17853.82421875	-5693.443359375	-152.9811248779297	9298.7421875	10404.6240234375	16758.751953125	-324.78814697265625	10348.0830078125	15271.455078125	19046.73046875	14853.1640625	22653.228515625	18768.501953125	18037.806640625	13318.1689453125	18808.03125	17904.251953125	15020.521484375	17560.38671875	19808.30859375	16808.90234375	14247.4775390625	15364.2021484375	17206.0546875	18191.31640625	18060.388671875	15848.716796875	18632.513671875	13833.3505859375	14423.3857421875	15268.552734375	17400.0	15670.76171875	17885.943359375	16450.5625	14272.0380859375	15763.8876953125	15444.1767578125	21624.45703125	17810.33984375	20223.337890625	17759.6015625	16091.4677734375	15952.517578125	15534.2646484375	24210.197265625	18728.986328125	17821.375	18029.83984375	17958.03125	19009.091796875	20367.857421875	16810.111328125	20672.15234375	17098.59765625	16113.1806640625	14188.466796875	20358.474609375	17627.166015625	20873.29296875	16669.142578125	19557.48828125	15652.064453125	17071.962890625	15132.203125	19330.0	16946.85546875	18632.9140625	17201.64453125	14756.0615234375	15796.65625	16938.3515625	19525.705078125	16111.7001953125	19362.833984375	16522.71875
2400	2700	15389.646484375	14974.220703125	9202.1640625	12502.1845703125	7779.5458984375	11708.28515625	16289.8720703125	10793.85546875	9400.7158203125	12656.3681640625	978.1126098632812	2767.561279296875	15480.763671875	-3693.35205078125	14971.6923828125	14751.919921875	9758.4560546875	12967.173828125	8778.20703125	11338.7900390625	15861.8046875	10613.4775390625	11469.12109375	4835.4072265625	17320.25390625	-4135.4248046875	-192.59307861328125	9297.9365234375	8888.208984375	15062.0029296875	-76.91547393798828	10289.5908203125	13973.86328125	15828.21875	13333.396484375	21864.435546875	17374.107421875	16707.818359375	12247.4736328125	17763.2578125	16168.728515625	13564.7080078125	15331.2509765625	18914.291015625	14915.470703125	13803.6259765625	13660.5166015625	16204.232421875	16680.4609375	16670.19921875	15117.1015625	13335.3134765625	12561.06640625	13316.1201171875	13883.21875	16197.9765625	13765.5517578125	16353.15234375	15207.0849609375	12592.1923828125	14437.5439453125	13827.6416015625	16046.59375	16485.494140625	17779.2578125	16660.439453125	13788.2373046875	14721.8642578125	14697.3505859375	21476.609375	17378.796875	16845.810546875	16183.7021484375	15852.841796875	15902.265625	18616.6171875	15945.9658203125	19725.556640625	16961.62890625	14759.517578125	13542.35546875	16603.19140625	16753.984375	18409.06640625	15246.6640625	18058.81640625	13658.552734375	15890.4990234375	13394.0849609375	17134.97265625	14467.0478515625	16663.8984375	15762.5927734375	13512.9501953125	14422.5869140625	15019.1943359375	16699.384765625	13789.7939453125	18342.1640625	15133.541015625
