frame_start	frame_end	Left-Cerebral-White-Matter	Left-Cerebellum-White-Matter	Left-Cerebellum-Cortex	Left-Thalamus	Left-Caudate	Left-Putamen	Left-Pallidum	Brain-Stem	Left-Hippocampus	Left-Amygdala	CSF	Left-Accumbens-area	Left-VentralDC	Left-choroid-plexus	Right-Cerebral-White-Matter	Right-Cerebellum-White-Matter	Right-Cerebellum-Cortex	Right-Thalamus	Right-Caudate	Right-Putamen	Right-Pallidum	Right-Hippocampus	Right-Amygdala	Right-Accumbens-area	Right-VentralDC	Right-choroid-plexus	AirCavity	Skull	Vermis	Pons	CSF-ExtraCerebral	Head-ExtraCerebral	ctx-lh-bankssts	ctx-lh-caudalanteriorcingulate	ctx-lh-caudalmiddlefrontal	ctx-lh-cuneus	ctx-lh-entorhinal	ctx-lh-fusiform	ctx-lh-inferiorparietal	ctx-lh-inferiortemporal	ctx-lh-isthmuscingulate	ctx-lh-lateraloccipital	ctx-lh-lateralorbitofrontal	ctx-lh-lingual	ctx-lh-medialorbitofrontal	ctx-lh-middletemporal	ctx-lh-parahippocampal	ctx-lh-paracentral	ctx-lh-parsopercularis	ctx-lh-parsorbitalis	ctx-lh-parstriangularis	ctx-lh-pericalcarine	ctx-lh-postcentral	ctx-lh-posteriorcingulate	ctx-lh-precentral	ctx-lh-precuneus	ctx-lh-rostralanteriorcingulate	ctx-lh-rostralmiddlefrontal	ctx-lh-superiorfrontal	ctx-lh-superiorparietal	ctx-lh-superiortemporal	ctx-lh-supramarginal	ctx-lh-frontalpole	ctx-lh-temporalpole	ctx-lh-transversetemporal	ctx-lh-insula	ctx-rh-bankssts	ctx-rh-caudalanteriorcingulate	ctx-rh-caudalmiddlefrontal	ctx-rh-cuneus	ctx-rh-entorhinal	ctx-rh-fusiform	ctx-rh-inferiorparietal	ctx-rh-inferiortemporal	ctx-rh-isthmuscingulate	ctx-rh-lateraloccipital	ctx-rh-lateralorbitofrontal	ctx-rh-lingual	ctx-rh-medialorbitofrontal	ctx-rh-middletemporal	ctx-rh-parahippocampal	ctx-rh-paracentral	ctx-rh-parsopercularis	ctx-rh-parsorbitalis	ctx-rh-parstriangularis	ctx-rh-pericalcarine	ctx-rh-postcentral	ctx-rh-posteriorcingulate	ctx-rh-precentral	ctx-rh-precuneus	ctx-rh-rostralanteriorcingulate	ctx-rh-rostralmiddlefrontal	ctx-rh-superiorfrontal	ctx-rh-superiorparietal	ctx-rh-superiortemporal	ctx-rh-supramarginal	ctx-rh-frontalpole	ctx-rh-temporalpole	ctx-rh-transversetemporal	ctx-rh-insula
0	30	9.549647331237793	3.2804884910583496	1.0610343217849731	12.025771141052246	-1.2155325412750244	15.457015037536621	0.8368966579437256	0.25515398383140564	5.3385186195373535	19.085918426513672	3.1056084632873535	12.66883373260498	8.36015510559082	-23.8206729888916	8.380788803100586	0.22469288110733032	3.516477584838867	3.5813472270965576	10.695271492004395	9.310663223266602	18.31006622314453	9.510186195373535	63.046329498291016	19.743576049804688	19.390981674194336	21.20188331604004	-12.40235424041748	28.94266128540039	8.325661659240723	0.026414763182401657	-0.1596618890762329	0.850875198841095	-9.594199180603027	4.088478088378906	54.02543258666992	35.8270149230957	34.38784408569336	14.091452598571777	10.427111625671387	-2.010838031768799	-0.44933584332466125	-19.559743881225586	3.5083792209625244	6.7067718505859375	8.954529762268066	-1.2754334211349487	19.609210968017578	26.672868728637695	1.9957770109176636	-27.987932205200195	71.61517333984375	7.309567928314209	23.014978408813477	54.584163665771484	16.264251708984375	25.622236251831055	22.141109466552734	9.436624526977539	31.51415252685547	16.609811782836914	3.916884183883667	7.990509510040283	47.85722732543945	-22.763744354248047	49.72610092163086	14.172637939453125	-1.523124098777771	10.26971435546875	56.36455154418945	15.333419799804688	13.541236877441406	-1.7179549932479858	32.26972198486328	4.402484893798828	-16.13266944885254	-8.186501502990723	6.100051403045654	-1.5879532098770142	9.457441329956055	3.198742628097534	-2.862147569656372	35.84756088256836	48.543617248535156	-28.033496856689453	71.3509521484375	17.538358688354492	57.45705032348633	-9.802690505981445	37.497764587402344	40.75191116333008	-8.62777042388916	24.64546775817871	35.23012161254883	5.057859897613525	70.68998718261719	14.133454322814941	56.25627517700195	-21.329513549804688	-29.856319427490234	62.660884857177734
30	60	1698.6502685546875	3773.71435546875	5783.4384765625	6849.85791015625	8288.044921875	9188.0400390625	2598.2294921875	4286.58935546875	6078.98876953125	6106.3916015625	2438.940673828125	13800.5283203125	6438.74951171875	22781.431640625	2049.27392578125	3312.59423828125	5934.5791015625	7379.4150390625	8787.904296875	8382.2783203125	3827.1865234375	6812.7880859375	5834.79736328125	5459.07421875	6003.685546875	15663.4697265625	244.6702423095703	1370.653564453125	7862.3681640625	4387.4580078125	5097.193359375	1149.170166015625	7681.68505859375	9646.4921875	9801.7138671875	10909.0869140625	7771.8056640625	7755.6884765625	8322.8701171875	7784.15478515625	9683.7294921875	8728.2666015625	9941.9541015625	7083.37451171875	11222.44921875	7181.83203125	5288.2255859375	8346.3583984375	11160.55859375	8337.0732421875	11199.32421875	13662.53125	8973.7255859375	9481.6806640625	9216.771484375	9035.0791015625	8909.3828125	10868.7900390625	9884.58984375	6429.78076171875	7022.158203125	10096.4091796875	9961.4765625	4416.1484375	12143.2578125	8479.90625	7648.376953125	6676.75537109375	8593.1875	10310.265625	10099.41796875	6205.34033203125	7885.22802734375	6730.2041015625	7865.125	9902.7763671875	9991.728515625	9831.8330078125	8468.8056640625	6181.2421875	4127.16796875	6813.7685546875	9088.041015625	7066.373046875	8595.30859375	13944.7841796875	8216.5380859375	9955.0126953125	8038.8466796875	9327.5732421875	9986.6708984375	9027.833984375	8199.1865234375	6968.212890625	7494.0478515625	9945.1083984375	11099.76171875	5221.73095703125	8976.671875	9015.5517578125
60	90	5366.876953125	11267.3564453125	18790.6640625	21088.9765625	27344.5625	28587.83984375	10504.8134765625	12177.8564453125	18273.486328125	18532.072265625	6042.4208984375	21750.6953125	17174.4453125	48210.8671875	6250.9248046875	12166.24609375	18617.48046875	22179.5625	25947.97265625	26182.859375	10982.5107421875	19837.583984375	14523.6435546875	27925.83984375	12913.0400390625	38190.1015625	744.9407348632812	4017.30859375	19867.74609375	14233.419921875	10367.9833984375	3753.205322265625	24588.74609375	28950.23828125	31539.43359375	34604.44921875	19850.90625	22481.9375	26405.822265625	24128.96484375	27812.0	27737.306640625	29231.484375	27171.802734375	33490.1328125	24315.248046875	14541.3876953125	23253.193359375	31024.09375	26060.591796875	34638.1953125	41867.23828125	29581.677734375	30505.294921875	28868.181640625	28878.1875	27372.1484375	33570.38671875	29984.169921875	24830.380859375	23142.82421875	29942.83203125	36383.15625	14935.484375	36572.72265625	23350.81640625	26000.07421875	15535.1416015625	29217.908203125	36367.5390625	21918.05078125	21715.28125	27697.572265625	20858.013671875	22712.25	32741.05859375	29783.384765625	27354.037109375	25757.9140625	22676.83203125	8822.05078125	25008.99609375	29723.072265625	24517.01171875	25722.400390625	43979.94921875	28359.0625	22385.107421875	27405.1640625	28137.798828125	21452.697265625	30648.626953125	28060.353515625	26468.728515625	21563.349609375	29337.53515625	31109.765625	12657.357421875	39593.98046875	21495.16796875
90	120	9609.212890625	19000.4765625	33072.64453125	39326.87109375	47123.12109375	54861.41015625	16233.560546875	19154.3671875	32631.9375	30292.59765625	9789.7958984375	45019.15234375	25750.291015625	89341.140625	10878.615234375	19418.37109375	33242.53515625	37471.09375	51164.453125	48916.9609375	20706.841796875	33481.4609375	21344.302734375	31889.193359375	27174.4375	71135.4609375	1076.56884765625	6673.66748046875	42343.5078125	26321.982421875	15518.8896484375	6767.68994140625	47411.5078125	48212.7578125	60630.125	65264.5859375	29415.494140625	37533.28515625	47095.03125	41265.76171875	44324.58203125	50423.0625	51553.9375	46560.5	53233.0234375	41175.1953125	29111.490234375	44968.82421875	54446.14453125	53135.84375	59390.0703125	76729.578125	52808.3046875	51740.671875	50936.13671875	52475.39453125	48840.3359375	61707.5859375	53192.46484375	48213.64453125	41695.953125	53969.37109375	61458.0546875	24428.556640625	65807.2578125	38037.15234375	45904.08984375	33898.17578125	58091.765625	62340.3359375	35932.43359375	35268.58203125	51271.39453125	37102.6328125	44385.68359375	59126.58203125	50731.2421875	49529.79296875	49169.33984375	39043.06640625	19436.40625	46453.8203125	49690.2265625	44278.22265625	51873.22265625	80030.3125	52820.25390625	43498.9375	49205.54296875	50471.0078125	41280.58984375	55765.03515625	51115.33203125	49801.26953125	39266.37890625	53138.5390625	65618.1640625	22642.728515625	58823.3046875	37230.640625
120	150	13668.0078125	27061.96875	47335.43359375	52467.5703125	68478.296875	71785.0	27472.330078125	27967.615234375	45258.41015625	35184.93359375	12576.7451171875	67269.0390625	38523.77734375	116813.3984375	14396.8623046875	25336.650390625	47882.12890625	56043.515625	69013.765625	73350.5859375	26686.458984375	46509.38671875	31100.1953125	37967.4140625	35073.78125	104520.8046875	1583.0606689453125	8852.4052734375	56386.046875	36513.82421875	17879.5234375	9676.1513671875	71433.453125	56274.3359375	83473.40625	82537.46875	46602.40625	56955.65625	68795.015625	55895.5234375	61185.99609375	70481.96875	71695.2109375	65964.4453125	73576.125	60232.9375	37668.09375	61818.671875	76957.4921875	73016.328125	78283.1328125	106707.5625	76127.2265625	65663.1875	73761.609375	75247.8984375	63891.578125	86982.8046875	75533.53125	71030.7109375	57707.08203125	75572.03125	94030.703125	38838.703125	83268.6796875	49766.203125	62590.08203125	53612.6171875	77945.359375	91691.3125	48802.97265625	55232.24609375	73781.6484375	54377.54296875	62965.9765625	82501.3984375	69136.421875	68158.078125	65790.1171875	61168.04296875	20255.095703125	71947.8125	69365.328125	70624.9609375	74847.4765625	113105.1484375	76274.046875	71880.1875	71039.7890625	75065.3125	54150.91796875	80538.3359375	74281.5	72765.7421875	56776.26953125	73075.3828125	91588.7265625	37022.7734375	91705.84375	45176.85546875
150	180	15090.9560546875	29399.765625	52230.93359375	58044.9609375	75565.28125	83275.8359375	36023.66015625	30545.19140625	50307.65625	37421.328125	11528.947265625	81471.59375	39232.0703125	126238.8046875	15065.2021484375	27560.939453125	53081.90234375	61476.8046875	81129.0625	79595.1484375	30643.150390625	48235.4140625	32999.1640625	38540.890625	38585.73046875	101805.1484375	1417.15234375	9148.486328125	68706.7734375	40813.9296875	14920.9736328125	10996.296875	78794.0546875	53260.05859375	93596.296875	90708.4296875	45541.0546875	60672.1640625	77380.90625	62769.39453125	62341.33984375	77216.6640625	82334.8125	73877.6484375	80024.296875	67727.3046875	40816.21484375	72761.2578125	86242.59375	74607.296875	86114.4453125	121120.4453125	84075.7421875	76717.109375	81871.203125	83285.78125	63804.22265625	94852.765625	83593.9765625	82476.3046875	61660.98046875	86256.0234375	96949.2734375	46518.4765625	101946.0546875	53494.76171875	74081.7421875	71477.96875	89769.09375	102819.4296875	47628.08203125	59038.1484375	83881.3046875	62137.05859375	65246.7265625	93037.9296875	77413.140625	76070.296875	75521.484375	69420.2109375	25357.51171875	82243.4609375	78066.1171875	76070.640625	84366.703125	128130.7109375	85433.1015625	74727.1640625	79935.6796875	85813.0859375	62622.9140625	90578.5	83361.1484375	84041.46875	62034.01953125	82208.765625	97214.265625	40933.3359375	103849.125	49357.4140625
180	240	16034.2734375	30509.611328125	52282.4765625	61324.796875	78025.6015625	84935.8203125	30311.4296875	32699.3984375	49129.9375	39163.9609375	10214.9619140625	70041.5703125	39823.9375	110457.75	16107.931640625	27693.603515625	53945.48046875	62485.83984375	79414.7265625	81130.484375	31260.466796875	49406.68359375	37221.87109375	54174.80078125	39009.68359375	89504.890625	1284.345703125	9372.0927734375	65374.80078125	41660.8671875	12102.80859375	11684.0380859375	79949.3984375	61462.84765625	94591.5390625	95782.125	51116.45703125	62975.9609375	79332.2421875	64476.12109375	63613.3359375	77510.9609375	82010.1796875	76810.203125	81515.59375	67712.1328125	43355.22265625	72385.6640625	84014.7734375	81275.796875	85102.265625	118125.859375	85350.34375	80142.78125	82844.4375	83504.9609375	65815.8203125	96078.890625	83443.265625	82761.234375	64560.33203125	84747.515625	94539.84375	42664.015625	92292.4453125	54111.015625	70406.84375	64995.0078125	87626.5390625	104056.0546875	47340.67578125	62460.41796875	87212.0078125	63669.11328125	62214.73828125	92192.4765625	78705.4375	75390.8125	75002.3359375	71517.6953125	26843.970703125	84675.921875	76344.390625	81737.1796875	82216.484375	119507.1796875	86768.8828125	68591.546875	81372.59375	86662.3046875	59873.7109375	91116.1796875	84414.2109375	87697.953125	65471.15625	83078.296875	95975.515625	45822.28515625	97349.9375	51708.44140625
240	300	16585.71875	28661.580078125	50904.79296875	60875.39453125	73803.875	76259.0078125	34445.09765625	32300.51953125	45240.55078125	42700.4296875	8003.033203125	76108.4765625	40433.81640625	88806.3125	16442.203125	28196.37109375	52211.30078125	61987.9140625	76444.5703125	78574.3125	29265.294921875	47780.91015625	37056.3984375	52229.02734375	41694.1484375	74696.0546875	1606.70166015625	9086.6318359375	58032.99609375	42562.72265625	8867.39453125	12237.0810546875	77324.3515625	58623.421875	88444.046875	85464.8671875	52175.04296875	60081.46875	74892.421875	64514.08203125	61519.87109375	74521.234375	76443.7109375	73862.1171875	75215.5078125	65192.36328125	46358.9921875	73486.6484375	78479.625	75513.5390625	79582.8984375	106318.8046875	81858.8671875	73662.0859375	78948.5390625	79431.1171875	65292.30078125	90250.7109375	79295.9296875	79882.328125	61247.23828125	79154.4375	98001.859375	47799.2421875	85316.125	56271.6171875	68068.6953125	63148.1484375	84406.0	96778.6953125	46050.87890625	61007.7265625	82975.109375	63292.14453125	59008.9375	88555.640625	72553.4921875	73205.4375	73114.609375	69667.375	28693.21875	75464.5234375	72194.5078125	77377.3203125	78362.671875	108805.6484375	83905.6015625	68573.6015625	79242.328125	81021.015625	61963.58203125	86347.6015625	80523.203125	84061.453125	62867.5234375	77838.96875	95933.7734375	47529.25	89852.1953125	49471.125
300	360	17144.921875	28362.060546875	47828.82421875	56189.87890625	70392.265625	72214.3125	33293.71484375	31046.880859375	42036.5546875	41221.4296875	6225.61669921875	77303.4375	39295.13671875	75943.9140625	16503.82421875	26875.150390625	49110.9921875	57817.875	70707.6953125	71570.75	29559.787109375	45409.72265625	35356.13671875	44492.1953125	41793.95703125	61640.89453125	1390.8095703125	9134.890625	53585.80859375	39856.48828125	5894.14208984375	12189.4140625	65225.7890625	54374.79296875	78807.6640625	80732.640625	53829.47265625	55685.6640625	68311.75	59630.05859375	58119.85546875	68302.4453125	71429.9140625	68260.421875	70577.25	62772.08984375	49196.203125	69117.6171875	71652.3125	67243.0625	72719.9609375	93510.890625	72884.25	69233.8203125	71611.375	70774.6015625	58031.28125	82592.0625	73615.0859375	75350.9921875	59484.015625	72711.4921875	89985.2890625	47799.75390625	75827.4765625	52448.91015625	66804.84375	64256.265625	77981.9921875	89083.25	46753.7421875	56608.5703125	76002.4140625	58829.51953125	57275.91796875	81854.4609375	67586.3984375	67270.203125	68621.8671875	64125.12890625	30983.619140625	75154.84375	65131.375	68467.90625	74746.6328125	99683.0546875	75296.6640625	64205.3828125	75011.9375	75772.0703125	61426.69921875	80310.1953125	74706.1875	80320.4765625	58855.3828125	72521.96875	85759.1796875	45805.76171875	79766.828125	48154.26953125
360	480	17496.349609375	27695.15234375	42258.5390625	52589.0234375	61873.27734375	63936.33203125	34343.84375	30361.0078125	38374.60546875	39700.20703125	4520.45361328125	60807.3984375	36787.7890625	58185.84765625	17347.515625	25472.431640625	44506.97265625	53321.37890625	62379.35546875	60236.41796875	35490.640625	38295.921875	38791.66015625	41199.57421875	38135.95703125	48867.609375	1259.9205322265625	9186.962890625	48478.96875	37103.921875	3806.66064453125	12176.4970703125	61037.02734375	53774.48046875	66889.8984375	72482.03125	47758.49609375	50486.07421875	60577.5234375	52918.22265625	51298.33984375	58755.890625	63141.1328125	58983.7890625	59702.18359375	54758.03515625	40924.5546875	61510.2578125	61698.94140625	57020.08984375	64316.32421875	76453.53125	64689.3359375	57186.15625	62801.00390625	63096.58203125	53132.34375	71584.6640625	64494.56640625	65600.921875	52462.86328125	64085.84375	81226.4140625	46653.484375	63593.0546875	48069.54296875	57707.296875	51837.37890625	66327.0625	76671.796875	43582.23828125	49155.890625	66919.2734375	53364.59375	49889.34375	71826.1328125	57610.2890625	60099.4921875	61104.10546875	57123.1484375	29743.36328125	65002.58984375	59085.625	60249.265625	63773.82421875	79750.2734375	64864.8515625	56993.62109375	64144.15625	64412.23046875	49945.44140625	69585.796875	64369.96875	68553.3203125	53205.8046875	63509.62109375	75975.578125	44929.4453125	65733.7109375	44165.55078125
480	600	17608.7890625	27068.671875	35495.17578125	46784.93359375	49295.90625	52253.66796875	34949.57421875	28503.17578125	33502.13671875	37588.640625	3137.672119140625	50062.04296875	33789.890625	37107.51953125	17320.576171875	24198.296875	37387.39453125	47143.69140625	51336.8984375	50723.953125	31536.6953125	32651.333984375	35110.6171875	44048.59765625	34671.48828125	28366.0546875	1146.2496337890625	8991.373046875	36756.01171875	33630.8828125	1106.51171875	12054.7802734375	49737.0078125	48431.29296875	54640.35546875	58466.53515625	44678.91015625	43738.203125	49895.53515625	45904.609375	46226.5078125	48764.76953125	52372.52734375	50043.69140625	52129.58203125	46564.12109375	37005.54296875	51049.64453125	49045.5078125	45102.93359375	51489.1875	59500.703125	52981.875	49061.08984375	51871.11328125	51855.7734375	45258.05078125	59125.45703125	53309.953125	54938.90625	45410.6796875	51897.796875	66409.8359375	44964.95703125	52581.44140625	43309.109375	49057.0703125	45075.734375	54454.15625	63066.44921875	38216.66796875	41434.46484375	57616.69921875	47753.9296875	42737.1328125	61076.0234375	49558.875	51936.43359375	49877.85546875	48487.11328125	28804.1953125	51973.5	48889.03125	48813.36328125	52067.8515625	62666.29296875	53965.52734375	47653.62109375	53301.42578125	53826.046875	45012.65234375	58088.77734375	54072.19921875	57237.8515625	46156.6015625	51504.87890625	61354.63671875	40900.078125	55753.88671875	41387.08984375
600	900	17786.373046875	24591.310546875	26569.85546875	36986.30078125	35099.484375	38068.8984375	29832.7109375	24631.755859375	25038.083984375	34316.24609375	457.1817932128906	35431.22265625	30892.29296875	21043.525390625	17297.173828125	23521.642578125	28212.630859375	37009.23046875	36729.81640625	36781.2421875	28216.064453125	26188.634765625	30838.04296875	34329.328125	29430.375	18730.474609375	881.931884765625	8851.4169921875	26254.541015625	28312.134765625	-306.26953125	11654.8349609375	36870.45703125	39285.08984375	38030.5	42068.1640625	35353.14453125	34127.36328125	35776.61328125	34929.71875	33750.26171875	34782.296875	38289.6484375	35876.64453125	37311.62890625	33907.8828125	31039.6484375	38589.51953125	36838.23046875	33003.77734375	36437.25	38795.23046875	37328.30859375	37262.796875	36741.11328125	37664.98046875	34681.15234375	42385.21484375	38806.796875	38876.89453125	34899.15234375	37602.29296875	51720.2734375	38354.65625	37423.0546875	34370.875	36409.50390625	35110.98046875	38884.953125	45538.04296875	33302.953125	32236.318359375	40832.5625	36853.00390625	32017.4765625	44510.45703125	35903.84375	38602.08984375	37725.0625	35738.609375	21675.908203125	37882.59765625	35557.89453125	35952.21484375	38222.98046875	40711.515625	37679.36328125	35869.7578125	38587.140625	38316.5625	32634.6953125	42233.04296875	39364.34765625	40996.83984375	35795.72265625	38020.33984375	46225.7109375	35095.96875	37599.16796875	31616.201171875
900	1200	17532.7890625	21619.572265625	18025.72265625	26510.271484375	20884.87109375	24456.34765625	26850.212890625	18560.845703125	18106.837890625	24826.673828125	-378.8744812011719	21503.8046875	25899.36328125	12728.78515625	17258.62890625	21197.146484375	19111.939453125	26420.91796875	23274.513671875	22761.7421875	25610.802734375	17359.259765625	24938.5234375	19855.28515625	25482.33203125	10852.0966796875	639.1984252929688	8645.3154296875	17246.978515625	23859.3515625	-427.5184020996094	11391.2216796875	25596.353515625	27104.103515625	24691.38671875	27793.5	28112.9296875	24803.6875	23614.19140625	24657.509765625	24778.25390625	23241.41796875	26205.955078125	25217.80078125	26338.3984375	23573.8359375	21853.166015625	25520.130859375	25220.751953125	22055.09765625	24252.951171875	22662.55078125	24176.36328125	25836.7421875	24218.84375	25142.42578125	24693.13671875	28384.32421875	25821.87890625	25520.939453125	23968.330078125	25002.390625	34582.7421875	30936.84375	25843.1328125	25795.759765625	24158.19921875	24998.265625	25664.38671875	31186.439453125	24563.4140625	23027.404296875	27575.46484375	26263.158203125	21097.203125	30106.751953125	24181.55078125	26149.677734375	26257.666015625	24693.40625	16222.2998046875	23283.693359375	24212.494140625	23705.30078125	25228.77734375	24959.208984375	23517.349609375	25617.37890625	25250.94140625	26370.44921875	24299.47265625	29060.669921875	26105.625	26171.23828125	24645.64453125	25391.5234375	32496.4609375	26745.9375	27624.81640625	23643.0546875
1200	1500	17158.896484375	19671.27734375	13783.259765625	20587.2578125	15094.7060546875	17358.326171875	23801.013671875	15376.7119140625	14531.375	19692.609375	-260.2355041503906	12365.5234375	22302.07421875	9636.6435546875	16712.115234375	19513.4453125	14300.65625	20513.716796875	16643.787109375	16495.306640625	22303.4453125	13325.2841796875	19156.1484375	13600.724609375	21224.52734375	4956.5146484375	567.1098022460938	8528.7060546875	13119.6162109375	19997.283203125	140.37066650390625	11323.6689453125	19653.380859375	21448.33984375	18159.5390625	23325.384765625	21610.818359375	19843.541015625	17947.490234375	19782.09375	20111.28125	18010.9453125	21305.6328125	20769.82421875	19483.794921875	18391.1171875	17614.478515625	19931.291015625	19164.17578125	16217.0302734375	19116.1171875	16069.4736328125	18285.029296875	19995.73046875	17836.515625	19309.662109375	18948.384765625	22001.03125	19399.259765625	18800.13671875	18786.64453125	19376.2578125	29044.49609375	24565.79296875	20097.39453125	20212.5234375	20515.43359375	21792.478515625	18926.484375	23582.759765625	18440.541015625	18228.177734375	21309.287109375	20534.263671875	18053.71484375	23653.931640625	19039.5078125	21960.78515625	21455.716796875	19075.337890625	14471.455078125	19334.4921875	19386.63671875	19022.486328125	19690.931640625	20654.431640625	17387.4296875	19395.458984375	18710.572265625	20989.6640625	19102.740234375	22478.826171875	19795.609375	19395.15625	18980.859375	19464.517578125	26939.205078125	22897.689453125	20899.197265625	18633.59375
1500	1800	16176.1474609375	17868.439453125	11052.55859375	17252.26171875	11480.0302734375	13586.3017578125	19888.90234375	12495.544921875	11964.4443359375	15708.9228515625	108.97342681884766	7329.06982421875	18678.92578125	8499.3095703125	15946.876953125	17861.3046875	11683.2490234375	16565.80078125	13201.2490234375	12356.9736328125	19675.2734375	11944.80078125	14347.96875	13457.3349609375	17841.279296875	4138.58837890625	533.7998657226562	8539.2099609375	11065.1220703125	17869.615234375	434.29046630859375	11246.845703125	16449.265625	18926.96875	16610.556640625	19708.208984375	18196.18359375	18106.34765625	15304.63671875	16714.62109375	16525.275390625	15178.9375	17448.177734375	18755.021484375	15374.181640625	15278.466796875	14448.91015625	15674.4306640625	17070.10546875	14070.1865234375	16847.677734375	15937.9033203125	15527.00390625	17377.025390625	14242.44921875	16760.279296875	15652.9404296875	18937.74609375	16253.1396484375	15682.5546875	14939.609375	15834.990234375	25652.18359375	21541.55078125	20588.806640625	17986.478515625	17337.01171875	17079.71875	15919.4990234375	20087.904296875	14400.85546875	15367.416015625	17673.939453125	17306.541015625	16658.208984375	20261.4453125	15628.1123046875	18820.568359375	17642.068359375	15850.77734375	11408.26953125	14291.7978515625	17048.3828125	16268.2734375	16350.57421875	17937.271484375	15104.9462890625	16811.6484375	15106.396484375	17171.228515625	16820.658203125	19185.85546875	17150.716796875	15526.990234375	15686.306640625	16066.291015625	22962.189453125	19946.388671875	21395.134765625	16082.1533203125
1800	2100	15238.779296875	16414.228515625	9240.435546875	13729.76953125	9624.4013671875	11941.3017578125	17741.015625	10879.6083984375	10054.7646484375	14083.6796875	668.6171264648438	-334.4978332519531	17100.82421875	8440.09765625	15123.2578125	15982.41796875	9859.48828125	13290.9267578125	10916.2275390625	9407.3583984375	17790.1171875	9656.412109375	12503.072265625	7990.29345703125	16046.046875	790.886474609375	454.3460388183594	8432.5087890625	10697.2841796875	15247.9482421875	506.6442565917969	11061.099609375	14967.6181640625	16351.244140625	13165.373046875	17576.05078125	14343.4013671875	16476.8828125	13592.2529296875	14526.1865234375	16067.904296875	13962.44921875	15291.3603515625	17290.71484375	15265.5380859375	13040.84375	13414.580078125	12904.98046875	14766.78125	12671.4951171875	13806.8759765625	13900.5185546875	13753.328125	14932.0419921875	12680.1572265625	15479.166015625	15923.0908203125	16566.640625	13901.3310546875	13443.1142578125	13703.93359375	14494.6416015625	22052.421875	20280.50390625	18658.291015625	15352.3017578125	15312.2138671875	16965.41796875	14014.4677734375	17217.818359375	12496.275390625	14448.9443359375	15793.0087890625	15610.0703125	13721.755859375	17613.705078125	13670.6884765625	17800.322265625	15432.6875	13732.033203125	10093.2333984375	14414.109375	14429.3388671875	14624.458984375	14002.5625	15269.3857421875	12362.07421875	15328.89453125	13621.7236328125	15127.0537109375	13118.466796875	17023.78515625	14658.580078125	13830.08984375	14227.2919921875	14147.1728515625	20646.544921875	17946.9296875	18440.931640625	14346.4326171875
2100	2400	14335.1669921875	14530.576171875	8026.6015625	12083.9716796875	8914.203125	10398.1552734375	12559.3740234375	9505.4404296875	9144.0732421875	11501.87890625	320.01971435546875	-324.7724914550781	14536.623046875	6621.6806640625	14099.7802734375	14668.009765625	8406.89453125	11713.888671875	9186.0	9050.1279296875	12968.689453125	8483.99609375	11372.54296875	4907.26708984375	13795.365234375	-1013.2647094726562	409.6343688964844	8321.8779296875	8393.724609375	14286.4892578125	695.5219116210938	10849.603515625	14232.5625	12993.3837890625	12295.685546875	16388.49609375	12770.99609375	15512.666015625	12026.9814453125	13035.47265625	14450.4326171875	12257.85546875	13323.9482421875	16112.50390625	13869.404296875	12092.3623046875	11253.8447265625	12502.478515625	14599.513671875	10298.44921875	12928.2255859375	11148.4970703125	11806.0390625	13632.8232421875	10596.556640625	13320.451171875	13102.8046875	14379.9326171875	11977.58203125	12256.6181640625	11602.3388671875	12729.0859375	17894.65234375	17391.701171875	16758.740234375	13457.4033203125	13825.6435546875	14233.6396484375	12237.7119140625	15558.86328125	10404.8935546875	13091.91015625	13392.318359375	13351.1064453125	13457.619140625	16126.0224609375	12378.6083984375	16411.9765625	14771.0146484375	11759.0283203125	9971.5263671875	10896.0361328125	13026.5400390625	12072.541015625	12185.9921875	17094.37890625	9973.318359375	12831.84375	11897.408203125	14089.6953125	11746.6708984375	14686.4775390625	12650.5673828125	12072.5185546875	11903.8701171875	12818.2568359375	18743.87890625	16008.2607421875	18053.734375	12451.9833984375
2400	2700	13389.2587890625	13419.2900390625	7148.7177734375	10262.3955078125	6112.0830078125	8441.7373046875	13532.52734375	7771.75341796875	7779.671875	10367.345703125	1059.1336669921875	-94.46761322021484	12967.58984375	5699.74658203125	13316.3046875	13250.943359375	7505.11376953125	9845.7529296875	8678.5234375	8163.4912109375	11987.298828125	8349.5234375	9068.935546875	1905.93017578125	11734.1552734375	849.4548950195312	348.8821105957031	8160.1787109375	7624.60205078125	12752.58203125	1002.5354614257812	10635.146484375	12749.369140625	12132.947265625	10637.080078125	13196.9326171875	12377.9052734375	14603.5732421875	11011.8701171875	12053.8564453125	12520.916015625	11260.2646484375	12726.3662109375	15322.6552734375	11498.642578125	11151.3232421875	12125.380859375	10582.0791015625	12722.103515625	10552.017578125	11036.693359375	10981.7158203125	10765.93359375	12193.6689453125	9388.865234375	12121.36328125	13168.009765625	13064.939453125	10424.6171875	10582.765625	10367.1103515625	11643.7294921875	17253.513671875	15193.54296875	16781.392578125	12869.509765625	11580.5146484375	13700.181640625	10280.037109375	15027.0703125	9170.0625	12303.6083984375	12564.5478515625	11777.9794921875	10613.603515625	14832.8125	11015.8642578125	15530.8095703125	13022.3056640625	10902.6318359375	8377.0849609375	10542.9052734375	12384.7900390625	10793.9013671875	10707.15625	13871.4716796875	9086.8017578125	12643.234375	10193.392578125	12549.546875	10833.0947265625	13476.017578125	11548.8212890625	10836.642578125	11141.771484375	11041.15625	16676.82421875	15207.44921875	19340.93359375	10821.2666015625
