frame_start	frame_end	Left-Cerebral-White-Matter	Left-Cerebellum-White-Matter	Left-Cerebellum-Cortex	Left-Thalamus	Left-Caudate	Left-Putamen	Left-Pallidum	Brain-Stem	Left-Hippocampus	Left-Amygdala	CSF	Left-Accumbens-area	Left-VentralDC	Left-choroid-plexus	Right-Cerebral-White-Matter	Right-Cerebellum-White-Matter	Right-Cerebellum-Cortex	Right-Thalamus	Right-Caudate	Right-Putamen	Right-Pallidum	Right-Hippocampus	Right-Amygdala	Right-Accumbens-area	Right-VentralDC	Right-choroid-plexus	AirCavity	Skull	Vermis	Pons	CSF-ExtraCerebral	Head-ExtraCerebral	ctx-lh-bankssts	ctx-lh-caudalanteriorcingulate	ctx-lh-caudalmiddlefrontal	ctx-lh-cuneus	ctx-lh-entorhinal	ctx-lh-fusiform	ctx-lh-inferiorparietal	ctx-lh-inferiortemporal	ctx-lh-isthmuscingulate	ctx-lh-lateraloccipital	ctx-lh-lateralorbitofrontal	ctx-lh-lingual	ctx-lh-medialorbitofrontal	ctx-lh-middletemporal	ctx-lh-parahippocampal	ctx-lh-paracentral	ctx-lh-parsopercularis	ctx-lh-parsorbitalis	ctx-lh-parstriangularis	ctx-lh-pericalcarine	ctx-lh-postcentral	ctx-lh-posteriorcingulate	ctx-lh-precentral	ctx-lh-precuneus	ctx-lh-rostralanteriorcingulate	ctx-lh-rostralmiddlefrontal	ctx-lh-superiorfrontal	ctx-lh-superiorparietal	ctx-lh-superiortemporal	ctx-lh-supramarginal	ctx-lh-frontalpole	ctx-lh-temporalpole	ctx-lh-transversetemporal	ctx-lh-insula	ctx-rh-bankssts	ctx-rh-caudalanteriorcingulate	ctx-rh-caudalmiddlefrontal	ctx-rh-cuneus	ctx-rh-entorhinal	ctx-rh-fusiform	ctx-rh-inferiorparietal	ctx-rh-inferiortemporal	ctx-rh-isthmuscingulate	ctx-rh-lateraloccipital	ctx-rh-lateralorbitofrontal	ctx-rh-lingual	ctx-rh-medialorbitofrontal	ctx-rh-middletemporal	ctx-rh-parahippocampal	ctx-rh-paracentral	ctx-rh-parsopercularis	ctx-rh-parsorbitalis	ctx-rh-parstriangularis	ctx-rh-pericalcarine	ctx-rh-postcentral	ctx-rh-posteriorcingulate	ctx-rh-precentral	ctx-rh-precuneus	ctx-rh-rostralanteriorcingulate	ctx-rh-rostralmiddlefrontal	ctx-rh-superiorfrontal	ctx-rh-superiorparietal	ctx-rh-superiortemporal	ctx-rh-supramarginal	ctx-rh-frontalpole	ctx-rh-temporalpole	ctx-rh-transversetemporal	ctx-rh-insula
0	30	10.435611724853516	2.7245588302612305	4.818057060241699	9.505265235900879	4.472346782684326	10.212413787841797	6.1561431884765625	3.5601699352264404	7.729153156280518	9.339643478393555	5.976301670074463	4.680289268493652	7.175558567047119	6.738344192504883	12.320480346679688	1.7171615362167358	4.853862762451172	4.671835422515869	8.673084259033203	14.014760971069336	14.070626258850098	9.215963363647461	25.750635147094727	5.637866973876953	11.920560836791992	5.230656623840332	2.881770372390747	17.63465690612793	4.435075283050537	2.792724132537842	14.256524085998535	6.829005241394043	1.8753091096878052	5.457727909088135	28.821138381958008	16.014705657958984	7.958261966705322	10.653728485107422	12.022427558898926	6.258885383605957	4.762147426605225	2.9729084968566895	7.896841049194336	7.200530052185059	10.36329460144043	7.063543796539307	11.166664123535156	13.47727108001709	9.32772445678711	5.225465297698975	26.561574935913086	7.550942897796631	14.894561767578125	18.851953506469727	13.995174407958984	16.165529251098633	12.663825988769531	12.704139709472656	19.33135223388672	11.40235710144043	8.699715614318848	10.636987686157227	16.7690486907959	1.7011195421218872	17.604190826416016	11.44217586517334	9.30871295928955	9.50637149810791	23.120771408081055	13.42875862121582	6.884488105773926	3.3150675296783447	16.269136428833008	6.597799301147461	2.870290756225586	5.181483745574951	9.166400909423828	3.124549627304077	8.69795036315918	11.861357688903809	3.130845308303833	16.008325576782227	28.516630172729492	7.285377025604248	32.04816436767578	10.270591735839844	25.65118408203125	8.91275691986084	23.45554542541504	16.87528419494629	7.690618515014648	19.96927833557129	19.553781509399414	9.645800590515137	29.89448356628418	15.221940994262695	22.874624252319336	6.832164287567139	23.5026798248291	26.561519622802734
30	60	4048.55029296875	4403.0849609375	5166.3447265625	5638.14697265625	5106.7216796875	6004.9716796875	4160.9541015625	4218.46533203125	4972.70654296875	4803.15869140625	3667.617431640625	6413.8310546875	5613.90869140625	6042.92822265625	4152.92333984375	4231.26708984375	5379.7236328125	5925.19384765625	5345.91796875	5798.6728515625	4207.51611328125	5038.27880859375	4833.705078125	4776.96240234375	5498.9072265625	4830.3759765625	811.0432739257812	1638.3931884765625	6207.11083984375	4261.921875	5229.5654296875	1097.9063720703125	5121.86767578125	6170.748046875	5464.28466796875	6237.193359375	5015.64453125	5240.1953125	5234.49755859375	4812.63720703125	6077.25146484375	5218.73046875	5841.7275390625	5339.1162109375	6500.52978515625	4745.8662109375	4811.0869140625	5660.8310546875	6448.95458984375	5173.8984375	6341.5458984375	6183.12744140625	5360.53125	5933.814453125	5412.45263671875	5982.26904296875	6496.271484375	5911.70654296875	5935.20458984375	4641.6357421875	4837.85205078125	5920.27490234375	5690.65771484375	3727.283935546875	6468.12109375	5941.41748046875	5194.0625	5698.4384765625	5406.8310546875	6285.60205078125	4966.02490234375	4764.60302734375	5330.92138671875	4595.63427734375	5908.84814453125	5765.69140625	5914.181640625	6075.2880859375	6014.33203125	4683.0166015625	4624.43701171875	5442.86083984375	6060.79833984375	5196.8330078125	5720.9033203125	6920.22265625	5478.55908203125	6381.33251953125	5187.1748046875	6255.9423828125	6738.74169921875	5837.228515625	5476.40234375	4847.05908203125	5251.2373046875	6220.27783203125	5602.4619140625	4174.00927734375	5707.11767578125	6010.01806640625
60	90	12337.501953125	13621.6904296875	16217.1787109375	16996.337890625	15647.6064453125	18514.185546875	13593.349609375	11871.05859375	14456.900390625	14503.125	10143.271484375	16324.1796875	14707.3193359375	13756.41796875	12710.5771484375	14299.1455078125	16429.568359375	17440.17578125	15372.009765625	17727.291015625	13028.5400390625	14381.248046875	13082.001953125	17282.951171875	13154.8046875	13700.5673828125	2452.408203125	4845.88720703125	17019.228515625	13151.525390625	14735.1357421875	3426.071044921875	16244.3115234375	16596.4609375	16524.271484375	19040.3828125	13159.9755859375	15447.4375	15729.1220703125	14597.21875	17271.306640625	15619.162109375	16955.794921875	17058.962890625	18890.8359375	15308.052734375	13156.0400390625	15153.55859375	17928.21875	15961.3525390625	19245.28515625	18977.845703125	16567.5546875	17545.537109375	15936.0595703125	18008.4140625	18497.625	17575.53515625	17038.33203125	14516.908203125	14983.1298828125	17042.00390625	17984.92578125	11442.78125	19847.259765625	16709.958984375	16550.775390625	15191.8505859375	16852.8359375	19249.748046875	12842.9560546875	14910.8291015625	16794.298828125	13936.548828125	16483.359375	17427.53125	17296.259765625	17092.873046875	17561.861328125	14834.4130859375	11877.392578125	15417.6259765625	18041.0390625	16179.634765625	16403.845703125	20701.021484375	16490.830078125	16200.62109375	15991.5849609375	17831.251953125	16995.748046875	18078.240234375	16866.52734375	14973.9677734375	14931.876953125	17854.37109375	16487.341796875	10715.91796875	18490.423828125	15985.3037109375
90	120	21859.76171875	23523.966796875	28371.255859375	31121.708984375	27621.849609375	34907.58984375	23425.107421875	19552.93359375	25225.595703125	24312.8671875	17692.869140625	29668.068359375	24213.931640625	24442.3828125	22560.998046875	24419.595703125	28708.431640625	30276.361328125	29367.142578125	32347.81640625	24343.4375	24357.46484375	21049.650390625	29774.859375	24292.443359375	23633.72265625	4078.497314453125	8235.03125	32558.26171875	23333.2109375	25418.1484375	6039.83837890625	29292.43359375	28821.345703125	30660.7265625	35130.79296875	21739.771484375	25660.6015625	27821.822265625	24809.9765625	28157.126953125	27802.662109375	29733.279296875	29036.68359375	31294.10546875	26282.927734375	23526.5390625	27171.681640625	31212.171875	30625.783203125	32949.4609375	34609.7734375	28816.513671875	30369.70703125	27881.2265625	31743.955078125	32630.41015625	31772.755859375	29982.91015625	26508.287109375	26569.455078125	30203.486328125	30344.54296875	19192.58203125	34330.90234375	27894.07421875	29374.419921875	27792.38671875	31102.453125	33274.3359375	21825.16015625	25287.974609375	29893.966796875	23820.2265625	30267.07421875	30438.3359375	29674.939453125	30146.2734375	31587.49609375	25489.193359375	21398.5625	27494.939453125	30602.0546875	28183.462890625	30668.064453125	37078.01171875	29020.5390625	29838.228515625	28144.88671875	31387.5390625	31418.9140625	32173.51171875	29770.640625	26804.34375	26385.58984375	31344.369140625	31725.908203125	18810.736328125	30459.109375	27862.908203125
120	150	30541.466796875	33273.91015625	40327.49609375	42007.99609375	39434.76171875	46016.55078125	34757.8828125	27509.70703125	34382.03515625	31325.0234375	24228.59375	42960.62109375	33962.6328125	33975.27734375	31186.19921875	33281.2109375	40808.50390625	43963.453125	39393.08203125	46559.421875	34426.55078125	33641.3046875	29939.8203125	39092.19921875	32331.056640625	34047.84765625	5721.9873046875	11141.2529296875	43954.03515625	32177.82421875	34748.09375	8473.556640625	43188.828125	38377.5859375	42612.21484375	46257.1015625	31739.9453125	37390.30078125	39788.2421875	34537.75390625	39350.83984375	38413.62890625	41277.234375	40294.421875	42964.95703125	37043.68359375	31835.662109375	37233.3125	43096.18359375	41954.60546875	43931.84765625	47633.81640625	40135.22265625	40939.3984375	39511.70703125	44727.53125	43658.32421875	44390.4609375	41823.4921875	37298.515625	36527.97265625	41881.75390625	45791.5546875	28849.203125	45960.30859375	37372.76171875	40657.53515625	39046.9296875	41916.30859375	46545.03125	30738.615234375	36831.40625	41657.765625	34629.96484375	41399.26953125	41601.36328125	40410.83984375	41159.48046875	41977.7890625	37666.48046875	27505.177734375	39728.09375	42237.09375	42087.48828125	42737.81640625	51761.4765625	40595.5078125	44345.42578125	39247.4765625	44648.9296875	41685.08203125	45314.30078125	42003.83203125	37445.91796875	37213.26953125	42981.859375	45349.91796875	27148.759765625	44909.875	36321.98046875
150	180	33555.578125	36362.31640625	44023.19140625	46202.0859375	43838.078125	53602.8828125	41097.44921875	29880.021484375	37606.76171875	33714.1875	25530.453125	49492.41015625	35378.86328125	36888.5625	33943.4921875	36688.109375	44692.3046875	47902.8828125	45498.171875	51032.75390625	38097.45703125	34951.3046875	31648.30859375	43176.83203125	34447.3671875	33472.2734375	5790.48681640625	11847.40625	50031.9140625	35045.16015625	37014.91015625	9427.5341796875	46995.0703125	39894.1328125	46385.62109375	51102.01953125	32223.3359375	40402.47265625	43489.3125	37783.9375	40755.1328125	41384.8125	46772.71484375	44299.4765625	46339.65234375	40937.15234375	33674.48046875	41162.58203125	47246.28125	42958.56640625	47588.63671875	53028.51953125	43470.83984375	45893.984375	42708.22265625	48409.734375	45737.9375	48185.53515625	45220.99609375	41183.359375	39199.4375	46572.72265625	47442.2265625	31998.369140625	52151.71875	40383.484375	46078.9296875	45653.4375	46309.78125	50857.04296875	30956.494140625	39610.78125	45710.36328125	38277.52734375	43195.4453125	45559.5703125	44222.0078125	44760.80078125	46217.7890625	41788.65234375	29523.9375	43330.74609375	46478.8515625	45354.515625	46388.80859375	57363.328125	43622.76953125	46847.3671875	42529.5234375	48886.21484375	45179.4296875	49735.03515625	46357.28125	41000.6796875	40496.9609375	46835.9609375	47827.421875	30165.421875	49833.484375	39382.140625
180	240	34187.74609375	37241.62890625	44175.59375	48212.765625	44244.9609375	54542.41015625	39743.87109375	30811.26953125	37130.25390625	33785.40625	25225.16796875	47884.1796875	35590.39453125	34710.9609375	34642.13671875	36973.44921875	45161.41015625	48464.38671875	45075.8203125	52075.75390625	38409.80078125	35930.87109375	33851.1484375	45336.39453125	34756.0625	32312.888671875	5876.8671875	12060.2041015625	48377.734375	35652.25390625	36523.79296875	9945.9462890625	47750.48828125	41233.64453125	47002.234375	51492.9296875	34805.21484375	41151.87109375	44018.66015625	38723.65625	40824.69140625	41723.71875	46281.23046875	44838.6015625	46785.7265625	41425.8671875	34332.41015625	40491.84375	46534.72265625	45567.859375	47535.60546875	52601.32421875	43776.75	46450.08203125	43230.3046875	48588.03125	46196.11328125	48532.48046875	44987.36328125	41321.5546875	40070.86328125	45964.58984375	45961.44921875	30429.33984375	50617.32421875	40349.625	45481.75	44469.7109375	45358.77734375	51009.1171875	31919.517578125	41169.6171875	46887.21875	39087.890625	42192.140625	45178.9140625	45366.171875	44197.25	45898.03515625	42995.10546875	31138.572265625	43446.64453125	46106.1640625	46593.81640625	45784.1328125	54852.3671875	44107.01171875	44894.99609375	42885.07421875	49224.68359375	45117.26171875	49832.33203125	46125.62890625	42235.76953125	41705.1484375	47236.70703125	47333.6484375	31392.99609375	48384.11328125	40330.640625
240	300	33209.1328125	35384.9921875	42763.03125	47642.125	41994.52734375	50619.40625	39920.703125	30056.052734375	35564.6796875	34886.05078125	23750.67578125	46879.48828125	35147.67578125	31126.466796875	33616.65234375	36589.0859375	43561.03125	47557.91015625	43068.59765625	50396.48828125	36919.046875	35429.8515625	32700.140625	43823.49609375	35427.63671875	30358.361328125	6021.24267578125	11761.0634765625	44778.421875	35840.66015625	34211.2890625	10239.841796875	46681.40625	39464.17578125	44027.99609375	47858.97265625	34029.23828125	39788.8203125	41743.59375	38326.65234375	39433.64453125	40120.5703125	43319.78125	43018.30078125	43715.59765625	39893.4765625	34028.59375	39142.76953125	43817.76953125	42279.171875	44443.48046875	48960.43359375	41550.49609375	44298.96875	41192.69140625	46073.44921875	45060.19921875	45809.60546875	42698.8515625	39472.48828125	38117.27734375	43347.50390625	46189.0078125	31693.5234375	47001.53125	39703.6171875	43798.046875	42272.87109375	43233.203125	47757.46484375	30975.31640625	39906.55078125	44427.01171875	38506.98046875	40546.8671875	43338.00390625	42259.375	42491.5625	44573.6328125	41588.078125	30425.802734375	39806.9609375	43727.15625	43419.9296875	43294.00390625	51386.3125	42267.53125	43446.71484375	41428.171875	46173.1640625	44335.828125	46954.2734375	43802.421875	40100.140625	39715.6796875	44657.55078125	46452.4609375	31122.916015625	45925.04296875	38525.6171875
300	360	31652.20703125	34138.3515625	40166.95703125	44225.421875	40151.84375	48361.14453125	38771.86328125	28362.392578125	33851.80078125	33124.83984375	22055.162109375	46444.88671875	33632.0546875	28052.994140625	31901.791015625	34344.26953125	40873.0	44793.67578125	39954.38671875	47143.72265625	35656.9296875	33553.97265625	31094.201171875	40082.1328125	34070.5390625	27611.490234375	5765.4775390625	11456.033203125	41855.79296875	33640.09375	31327.35546875	10210.1806640625	41145.2109375	36765.94921875	40165.99609375	44349.9375	33248.0546875	37585.01171875	38811.921875	35923.8203125	36981.5234375	37363.03515625	40759.25390625	39970.32421875	41197.046875	38253.234375	33432.21484375	36657.078125	40410.54296875	38784.33203125	41384.64453125	44988.875	37654.0859375	41452.4609375	37822.3125	42041.1484375	41435.93359375	42340.43359375	39835.61328125	36904.140625	36373.07421875	40173.43359375	42268.34765625	30719.12890625	43168.453125	36935.05078125	42521.84375	40843.23046875	40015.79296875	44028.75390625	30101.775390625	37636.6328125	40981.82421875	36146.4609375	38256.35546875	40260.27734375	39285.5859375	39465.59375	41711.609375	38540.328125	29906.142578125	38324.2265625	40409.921875	39554.6015625	40805.0	47703.97265625	38542.28125	41230.0703125	38762.078125	42913.30859375	42431.484375	43556.47265625	40573.76953125	37892.453125	37308.25	41474.828125	41981.46875	29507.107421875	41568.2421875	36449.54296875
360	480	29284.7265625	31743.029296875	35770.54296875	41496.37109375	35658.94140625	43995.515625	36882.64453125	26925.5234375	31117.625	30922.552734375	20184.67578125	39036.21484375	31418.806640625	24942.927734375	29627.357421875	31791.7265625	36979.4453125	41286.1171875	35537.68359375	41778.265625	35939.890625	30182.16015625	31200.8828125	36526.8515625	31148.791015625	24620.39453125	5552.27001953125	11074.880859375	37735.19921875	31324.357421875	27483.87109375	10197.59375	38486.52734375	34219.109375	34952.43359375	39464.734375	29804.91015625	34048.02734375	34858.83984375	32735.205078125	32979.6796875	33188.56640625	36365.05078125	35316.29296875	36048.8359375	34417.4296875	29518.6328125	32437.541015625	35875.6640625	33964.2578125	36937.625	39139.7109375	33793.25390625	36128.5546875	33829.91796875	37439.32421875	36851.3984375	37467.2109375	35204.9453125	32823.55859375	32680.37109375	35996.484375	37629.08203125	28852.689453125	37888.42578125	33709.3046875	38004.75390625	35243.69921875	34962.58984375	38588.0	28113.57421875	33867.953125	36627.06640625	33074.8359375	34171.46875	36287.90234375	34474.27734375	35676.765625	37128.41015625	35087.921875	27452.923828125	33940.33203125	36202.2265625	34850.6875	35495.73046875	40955.640625	33956.21875	36708.75	34080.25	37545.6953125	36616.80078125	38367.4296875	35540.68359375	33353.0859375	33661.1015625	36928.8125	36924.7578125	28365.4609375	37279.578125	32981.8046875
480	600	26243.41015625	28972.64453125	30388.232421875	36907.91796875	29854.4453125	37769.421875	34306.29296875	24443.572265625	27962.34375	28064.833984375	17597.14453125	33983.90625	28294.708984375	20548.291015625	26553.98828125	28302.71875	31171.193359375	36666.1953125	30319.533203125	36403.64453125	31881.04296875	26505.6171875	27690.37890625	33085.26171875	28113.087890625	20408.974609375	5287.51025390625	10444.728515625	30196.2890625	28377.099609375	22954.267578125	10059.1923828125	33110.5625	30073.412109375	29698.517578125	32972.19921875	26798.3359375	30083.556640625	29530.654296875	28831.28515625	29394.0546875	28545.357421875	30981.35546875	30383.2890625	31411.583984375	30086.708984375	25996.93359375	27173.341796875	29736.45703125	27831.494140625	30636.875	32589.693359375	28483.720703125	31365.509765625	28865.2265625	31638.2265625	31989.576171875	31692.02734375	29748.224609375	27857.318359375	28625.333984375	30170.25	31718.310546875	26798.078125	32118.693359375	29699.146484375	33434.58203125	30722.26171875	29319.220703125	32216.634765625	24571.0234375	29665.994140625	31732.078125	29616.78125	29381.02734375	31394.130859375	30071.251953125	30943.732421875	31522.9140625	30509.23828125	24326.84375	27873.041015625	30745.03125	29150.880859375	29935.09375	34136.66796875	28769.138671875	31364.384765625	29016.833984375	31702.666015625	31905.2265625	32590.69140625	30330.50390625	28448.39453125	29212.97265625	30970.669921875	30415.125	25719.181640625	32603.509765625	29879.55078125
600	900	22228.87890625	24447.763671875	23230.935546875	29714.369140625	22587.3046875	29427.400390625	28539.685546875	20559.056640625	22873.18359375	24702.12109375	14108.357421875	26452.203125	24760.9609375	16147.8046875	22295.888671875	24556.9453125	24008.8828125	29202.021484375	23154.91796875	28537.982421875	26948.287109375	22397.26171875	23748.779296875	25596.0	23763.505859375	16320.4482421875	4826.7197265625	9676.26171875	22536.091796875	24091.85546875	17419.912109375	9752.4873046875	25746.71875	24937.423828125	22723.150390625	25099.50390625	21702.43359375	24231.65625	22766.7109375	23219.693359375	22891.650390625	22074.3046875	24070.28515625	23430.0546875	24299.38671875	23697.57421875	21550.3125	21283.669921875	23479.634765625	21842.146484375	23629.146484375	24962.623046875	21800.978515625	24942.677734375	22314.0390625	24184.078125	25180.599609375	24459.19140625	23088.771484375	21254.9453125	22933.177734375	23505.017578125	24539.380859375	22432.447265625	24642.359375	23783.689453125	26378.22265625	24414.365234375	22484.0234375	24262.318359375	21110.505859375	23937.208984375	23904.474609375	23753.015625	22763.201171875	24345.443359375	23399.80078125	24011.369140625	24611.115234375	23945.58984375	19539.279296875	21749.830078125	23855.3046875	22510.1875	23084.99609375	25305.6953125	21774.01953125	24764.765625	22378.705078125	24004.0234375	24685.205078125	24914.720703125	23395.89453125	21767.314453125	23258.4375	23966.779296875	23407.625	21740.9375	24732.234375	23601.87109375
900	1200	18497.6484375	19742.208984375	16408.923828125	22183.42578125	15723.6943359375	21862.3515625	23299.759765625	16011.7900390625	17839.9375	18727.90234375	11212.513671875	19398.44921875	20224.203125	12971.396484375	18561.095703125	20004.861328125	16820.1015625	21697.89453125	16730.978515625	20816.51953125	22316.6328125	16966.732421875	18988.82421875	18931.0234375	19888.931640625	12705.46875	4439.82666015625	8986.7001953125	15820.8486328125	20033.658203125	12874.0439453125	9521.2890625	19737.35546875	18793.662109375	17109.37890625	18397.9609375	17220.388671875	18676.2421875	16949.1953125	18116.3125	17693.19140625	16852.525390625	18332.48046875	17867.12890625	18470.390625	18164.6953125	16267.7431640625	15739.525390625	17771.572265625	16426.85546875	17851.6015625	18557.529296875	16205.078125	18948.154296875	16886.029296875	17904.9375	19056.123046875	18358.46875	17184.439453125	15676.7998046875	17450.39453125	17585.392578125	17635.3671875	18223.23828125	18351.01171875	18672.720703125	19566.966796875	18461.76953125	16820.830078125	17996.408203125	16573.99609375	18450.638671875	17724.640625	18300.244140625	17240.908203125	18340.90234375	17677.19140625	17973.591796875	18599.96875	18033.970703125	15112.1376953125	15930.826171875	17657.63671875	16536.16015625	17178.78125	18595.109375	15895.654296875	18927.083984375	16698.802734375	17942.26953125	18909.3828125	18833.44140625	17352.3515625	15882.47265625	17364.076171875	17573.39453125	17272.208984375	17027.07421875	18706.03515625	18263.892578125
1200	1500	16584.22265625	17090.572265625	13053.7568359375	17841.416015625	12867.0703125	17509.494140625	19827.580078125	13447.283203125	15186.982421875	15444.791015625	9812.51953125	15751.369140625	17419.44921875	11533.9892578125	16501.197265625	17267.662109375	13115.56640625	17483.16015625	13539.982421875	16933.138671875	19097.02734375	14071.7119140625	15508.8388671875	15345.765625	16726.576171875	10615.2978515625	4297.99609375	8660.3759765625	12314.658203125	16929.1484375	10849.7568359375	9473.416015625	16415.125	16130.1083984375	14354.2109375	15869.673828125	14337.6982421875	15816.236328125	14292.7890625	15582.439453125	15406.5048828125	14453.08984375	15732.5908203125	15447.7724609375	15318.8955078125	15446.6474609375	14022.986328125	13456.611328125	15000.048828125	13791.2392578125	15334.736328125	15925.0546875	13688.1796875	15786.5361328125	14140.0810546875	15100.26953125	15647.548828125	15620.3271484375	14349.7216796875	13027.2529296875	14773.3779296875	14922.6220703125	14848.220703125	15100.0771484375	15235.5048828125	15580.5029296875	17108.84765625	15947.2421875	13857.4052734375	14989.0947265625	13745.646484375	15538.83203125	14831.58203125	15376.0478515625	14886.9013671875	15558.080078125	14924.48046875	15697.22265625	15759.078125	15070.607421875	13415.3564453125	14048.1279296875	14853.6767578125	14088.8076171875	14636.93359375	16555.60546875	13154.1396484375	15568.73046875	13859.189453125	15234.86328125	15795.912109375	15734.541015625	14527.365234375	13213.9677734375	14473.5419921875	14633.3037109375	14602.1865234375	14774.3857421875	15274.642578125	15235.455078125
1500	1800	15073.3310546875	15029.015625	10884.1220703125	15153.2646484375	10958.2421875	14907.8359375	16881.328125	11433.138671875	12996.40625	13030.4072265625	8900.1767578125	13357.701171875	14785.634765625	10298.1142578125	15063.2421875	15293.4375	11034.1611328125	14499.3134765625	11796.1845703125	14240.341796875	16400.44140625	12538.41796875	12710.6826171875	13922.4404296875	14296.109375	9693.974609375	4250.58740234375	8524.5595703125	10486.1064453125	14974.2646484375	9705.0888671875	9411.8134765625	14603.8037109375	14069.7421875	13226.6220703125	14278.0986328125	12604.275390625	14291.6474609375	12825.71484375	13875.3349609375	13574.390625	13014.931640625	13682.94921875	14054.3369140625	13090.818359375	13731.0654296875	12371.5380859375	11604.8935546875	13643.29296875	12537.8984375	14060.30859375	15050.345703125	12240.6484375	13950.1025390625	12445.849609375	13527.66796875	13635.5029296875	14126.91796875	12740.2119140625	11571.1826171875	12910.3271484375	13175.79296875	13210.6337890625	13296.7880859375	14139.8271484375	14028.8037109375	15168.3935546875	13650.0576171875	12431.26953125	13300.1337890625	11731.203125	13491.494140625	12998.791015625	13659.9052734375	13698.75	13941.55859375	13241.1474609375	13961.7392578125	13677.970703125	13288.1953125	11615.5302734375	11917.0107421875	13526.220703125	12722.5263671875	12958.98828125	14943.3984375	11838.974609375	13939.8681640625	12263.9755859375	13346.85546875	14043.4638671875	14137.470703125	13051.7158203125	11554.8154296875	12729.125	12946.486328125	12854.220703125	13169.4208984375	14135.4208984375	13627.5458984375
1800	2100	13900.498046875	13471.9013671875	9431.9306640625	12537.9462890625	9743.763671875	13378.7451171875	15063.53125	10083.3359375	11550.453125	11597.189453125	8239.8447265625	10814.125	13339.3134765625	9468.9736328125	13932.8759765625	13517.0615234375	9533.3828125	12149.7568359375	10477.67578125	12225.5830078125	14738.0556640625	10889.9638671875	11362.1787109375	11673.1875	12863.8251953125	8604.3720703125	4114.6455078125	8323.763671875	9636.798828125	12964.9267578125	8871.8154296875	9275.2431640625	13214.8173828125	12973.830078125	11800.4716796875	12956.7626953125	10911.203125	13136.1015625	11731.208984375	12602.0029296875	12808.525390625	12129.7548828125	12684.5869140625	13003.1845703125	12513.3681640625	12374.125	11249.9931640625	10389.265625	12224.7919921875	11542.4365234375	12492.1171875	13768.9208984375	11240.466796875	12646.3291015625	11479.6396484375	12491.0859375	12737.8837890625	12769.447265625	11482.1962890625	10458.5908203125	11997.630859375	12257.01171875	11961.580078125	12536.166015625	13106.650390625	12589.005859375	13608.51953125	12777.162109375	11338.248046875	11941.8662109375	10547.01953125	12620.1689453125	11996.2265625	12611.2236328125	12290.1220703125	12632.1337890625	11875.1103515625	13091.2294921875	12422.4169921875	12114.017578125	10474.359375	11430.052734375	11994.310546875	11593.681640625	11654.7568359375	13538.56640625	10632.203125	12810.0732421875	11255.474609375	12184.064453125	12353.0185546875	12880.982421875	11793.173828125	10664.318359375	11724.5400390625	11713.3759765625	11861.794921875	12183.177734375	12461.296875	12311.6689453125
2100	2400	12826.8818359375	11903.0947265625	8364.5986328125	11163.611328125	9053.5625	11825.83203125	12209.9609375	9033.6796875	10406.74609375	10072.513671875	7439.3408203125	10060.7373046875	11517.83984375	8621.490234375	12766.0615234375	12205.5986328125	8353.8115234375	10717.3818359375	9319.5859375	11082.400390625	12050.15625	9731.65234375	10085.89453125	10650.841796875	11238.525390625	7384.1376953125	4017.021240234375	8135.03173828125	7983.2421875	12016.5537109375	8178.55126953125	9103.052734375	12565.8916015625	11397.240234375	10980.7470703125	12051.7451171875	10038.263671875	12130.9306640625	10821.572265625	11745.4033203125	11764.41796875	11196.3603515625	11347.9560546875	12037.7451171875	11479.0625	11600.34375	10253.62890625	9808.205078125	11708.982421875	10387.87109375	11791.056640625	12472.0791015625	10246.384765625	11552.326171875	10405.8681640625	11279.15234375	11338.693359375	11639.513671875	10389.8671875	9733.9443359375	10829.3212890625	11206.7294921875	10282.4072265625	11187.865234375	11628.8681640625	11339.96484375	12425.890625	11275.7783203125	10298.0068359375	11096.1318359375	9661.3193359375	11455.275390625	10670.4794921875	11280.3525390625	11824.20703125	11691.1357421875	11005.1240234375	12157.43359375	11594.4072265625	10730.2353515625	9971.0185546875	9872.9267578125	11006.560546875	10395.30078125	10585.130859375	13433.8486328125	9536.3974609375	11487.0439453125	10233.4931640625	11293.5234375	11152.060546875	11579.7587890625	10607.2197265625	9677.455078125	10348.1083984375	10771.6298828125	10896.6435546875	11054.10546875	11404.763671875	11065.2177734375
2400	2700	11884.6435546875	10843.1572265625	7640.009765625	9724.44921875	7752.27001953125	10659.2744140625	11717.6279296875	7961.87158203125	9301.109375	9239.890625	7068.1005859375	9411.0048828125	10379.1767578125	7867.46826171875	11911.9052734375	10953.689453125	7600.49755859375	9441.23828125	8707.689453125	10300.724609375	11171.2978515625	9189.7998046875	8906.615234375	9377.1982421875	9960.6328125	7511.20556640625	3899.820556640625	7949.498046875	7340.8017578125	10761.5478515625	7689.6416015625	8924.1376953125	11580.697265625	10520.6328125	10136.6123046875	10720.751953125	9406.150390625	11372.8642578125	10092.7958984375	10964.099609375	10721.6083984375	10478.203125	10736.8681640625	11373.4833984375	10374.58203125	10755.056640625	10255.927734375	8876.0234375	10724.064453125	10174.2998046875	10767.8349609375	11749.1259765625	9607.11328125	10588.1142578125	9613.8818359375	10422.939453125	10789.572265625	10854.6513671875	9542.18359375	8887.791015625	10111.22265625	10449.1005859375	9591.5869140625	10062.9306640625	11272.2255859375	10690.46484375	10895.2646484375	10666.3720703125	9431.4638671875	10471.255859375	8777.990234375	10776.7890625	10061.1357421875	10492.95703125	10431.4658203125	10985.7197265625	10158.0986328125	11378.4365234375	10596.384765625	10174.9912109375	9040.6416015625	9546.8671875	10405.01171875	9785.35546875	9837.529296875	12024.587890625	8944.703125	10760.265625	9417.2880859375	10390.416015625	10585.7822265625	10767.8583984375	9952.16796875	8967.0732421875	9831.1953125	9815.1904296875	9872.71484375	10544.94140625	11112.4638671875	10079.33984375
