frame_start	frame_end	Left-Cerebral-White-Matter	Left-Cerebellum-White-Matter	Left-Cerebellum-Cortex	Left-Thalamus	Left-Caudate	Left-Putamen	Left-Pallidum	Brain-Stem	Left-Hippocampus	Left-Amygdala	CSF	Left-Accumbens-area	Left-VentralDC	Left-choroid-plexus	Right-Cerebral-White-Matter	Right-Cerebellum-White-Matter	Right-Cerebellum-Cortex	Right-Thalamus	Right-Caudate	Right-Putamen	Right-Pallidum	Right-Hippocampus	Right-Amygdala	Right-Accumbens-area	Right-VentralDC	Right-choroid-plexus	AirCavity	Skull	Vermis	Pons	CSF-ExtraCerebral	Head-ExtraCerebral	ctx-lh-bankssts	ctx-lh-caudalanteriorcingulate	ctx-lh-caudalmiddlefrontal	ctx-lh-cuneus	ctx-lh-entorhinal	ctx-lh-fusiform	ctx-lh-inferiorparietal	ctx-lh-inferiortemporal	ctx-lh-isthmuscingulate	ctx-lh-lateraloccipital	ctx-lh-lateralorbitofrontal	ctx-lh-lingual	ctx-lh-medialorbitofrontal	ctx-lh-middletemporal	ctx-lh-parahippocampal	ctx-lh-paracentral	ctx-lh-parsopercularis	ctx-lh-parsorbitalis	ctx-lh-parstriangularis	ctx-lh-pericalcarine	ctx-lh-postcentral	ctx-lh-posteriorcingulate	ctx-lh-precentral	ctx-lh-precuneus	ctx-lh-rostralanteriorcingulate	ctx-lh-rostralmiddlefrontal	ctx-lh-superiorfrontal	ctx-lh-superiorparietal	ctx-lh-superiortemporal	ctx-lh-supramarginal	ctx-lh-frontalpole	ctx-lh-temporalpole	ctx-lh-transversetemporal	ctx-lh-insula	ctx-rh-bankssts	ctx-rh-caudalanteriorcingulate	ctx-rh-caudalmiddlefrontal	ctx-rh-cuneus	ctx-rh-entorhinal	ctx-rh-fusiform	ctx-rh-inferiorparietal	ctx-rh-inferiortemporal	ctx-rh-isthmuscingulate	ctx-rh-lateraloccipital	ctx-rh-lateralorbitofrontal	ctx-rh-lingual	ctx-rh-medialorbitofrontal	ctx-rh-middletemporal	ctx-rh-parahippocampal	ctx-rh-paracentral	ctx-rh-parsopercularis	ctx-rh-parsorbitalis	ctx-rh-parstriangularis	ctx-rh-pericalcarine	ctx-rh-postcentral	ctx-rh-posteriorcingulate	ctx-rh-precentral	ctx-rh-precuneus	ctx-rh-rostralanteriorcingulate	ctx-rh-rostralmiddlefrontal	ctx-rh-superiorfrontal	ctx-rh-superiorparietal	ctx-rh-superiortemporal	ctx-rh-supramarginal	ctx-rh-frontalpole	ctx-rh-temporalpole	ctx-rh-transversetemporal	ctx-rh-insula
0	30	39.62827682495117	49.43772888183594	82.19660949707031	76.67350006103516	98.76545715332031	43.63165283203125	65.93566131591797	54.62310028076172	143.2369842529297	316.3289794921875	69.19669342041016	50.0383186340332	144.31675720214844	-380.00347900390625	37.51133346557617	64.3851089477539	79.92314910888672	75.6543960571289	29.87089729309082	48.68244552612305	331.6790466308594	194.5108184814453	79.92576599121094	-69.16284942626953	15.78303337097168	384.1609191894531	19.9049072265625	47.24357223510742	125.07402038574219	114.90430450439453	103.27883911132812	48.9146728515625	135.22149658203125	174.82000732421875	73.23906707763672	-14.400186538696289	106.23164367675781	4.60686731338501	69.97412872314453	112.1309585571289	216.46568298339844	52.54190444946289	112.42616271972656	62.98896408081055	231.10342407226562	56.63443374633789	123.31608581542969	60.9350471496582	139.91966247558594	-15.471107482910156	163.1146697998047	169.7206268310547	6.891819000244141	20.503921508789062	46.81189727783203	51.14391326904297	13.327528953552246	27.466646194458008	59.71757507324219	50.06685256958008	173.0849151611328	51.243370056152344	226.52244567871094	92.83683013916016	-84.16683197021484	346.75244140625	120.31298065185547	218.3667755126953	1.7087619304656982	148.30323791503906	360.4981994628906	33.40056228637695	15.338449478149414	94.25713348388672	76.76103210449219	25.918346405029297	146.85488891601562	152.93014526367188	191.74949645996094	54.4293327331543	227.68836975097656	16.174297332763672	162.45004272460938	29.58649444580078	217.330078125	135.81866455078125	109.21754455566406	21.7054386138916	90.90589141845703	157.9693603515625	216.56214904785156	72.3109130859375	78.53529357910156	11.471871376037598	154.87728881835938	56.49556350708008	13.019251823425293	280.2065734863281	127.46526336669922	303.29595947265625
30	60	1506.2874755859375	3532.09375	8414.046875	8097.03857421875	9646.646484375	10856.1259765625	4881.67333984375	4554.41357421875	7638.818359375	6230.3505859375	2790.409423828125	10073.13671875	6784.7490234375	15214.1025390625	1506.7734375	3909.69921875	7835.33984375	8163.9130859375	10316.7490234375	11152.2978515625	4407.8876953125	6894.8515625	6113.70654296875	9808.365234375	6839.30029296875	20879.39453125	354.7016296386719	1555.817138671875	7932.9912109375	5667.720703125	5513.533203125	1606.7049560546875	11551.2080078125	8261.5791015625	13065.79296875	15206.021484375	4780.81396484375	9383.3388671875	10477.3505859375	9044.517578125	10253.9677734375	11423.603515625	11304.248046875	13659.513671875	12729.4765625	9107.8681640625	8606.05859375	7604.724609375	11851.4658203125	13355.701171875	13083.8271484375	21359.783203125	9671.23046875	10197.1748046875	10406.2431640625	11719.5908203125	10392.7958984375	12029.1845703125	11130.177734375	8377.1533203125	10361.013671875	11056.7021484375	12140.63671875	5316.6259765625	16043.3427734375	12557.19921875	11041.005859375	14976.873046875	11863.3349609375	15656.59765625	7740.74560546875	8630.451171875	9998.3857421875	8746.810546875	12996.9111328125	11397.1845703125	13201.0224609375	12867.0595703125	12423.6689453125	8531.08984375	10740.4248046875	7861.96875	14045.4501953125	10608.1376953125	12524.939453125	16895.607421875	9332.0263671875	11947.060546875	10271.5322265625	11870.0693359375	11373.708984375	11806.1787109375	11574.8388671875	8286.166015625	11237.48828125	10225.736328125	13955.3828125	8579.4755859375	17653.841796875	10373.3525390625
60	90	5415.63330078125	14074.2763671875	29498.744140625	27816.595703125	33775.640625	42128.234375	12485.8212890625	16709.52734375	27527.6875	18798.357421875	7957.201171875	34938.46875	18549.763671875	62646.51953125	5951.1298828125	12885.580078125	27320.166015625	28274.927734375	36074.69921875	38545.953125	13497.9462890625	24024.88671875	17043.662109375	24907.828125	21782.419921875	78324.953125	980.04296875	4841.1416015625	32805.41015625	19922.57421875	12640.31640625	5201.0048828125	34452.046875	35406.98046875	44957.4921875	59247.0	21355.298828125	32365.953125	39397.1875	31681.88671875	40051.97265625	40136.78125	39924.5703125	42742.73828125	43386.9765625	34063.921875	20781.04296875	30710.66796875	44080.2734375	43607.125	41038.52734375	70595.5703125	36173.80859375	40430.0078125	37047.8515625	44375.34765625	31885.080078125	45095.01953125	40387.21875	35758.65625	31147.046875	37840.4140625	47780.51171875	21560.650390625	54737.2109375	35800.1328125	35162.859375	38914.4921875	43556.1796875	50888.1640625	25126.994140625	29265.947265625	37900.65234375	29735.34765625	35571.3125	40733.37109375	41499.484375	45739.19921875	38366.6796875	31607.375	23883.52734375	30831.498046875	43941.5859375	41108.51953125	41969.89453125	66255.859375	36411.1328125	39912.49609375	38821.8203125	42560.5703125	37678.2421875	43970.14453125	41051.37109375	36415.515625	32668.3125	37306.0390625	47757.1953125	24294.119140625	50223.55859375	33581.17578125
90	120	10390.052734375	24520.19140625	52471.85546875	50571.87109375	66365.5	73839.3515625	23924.93359375	28211.28515625	43053.078125	34979.828125	12575.5478515625	64047.85546875	35301.30078125	102680.0390625	10753.103515625	22867.615234375	50964.15625	52061.03515625	71107.6171875	70992.328125	24501.28125	42596.20703125	30003.42578125	34647.1328125	34191.6875	118190.3515625	1522.2403564453125	8936.576171875	57965.66015625	35712.796875	16560.447265625	10187.11328125	68416.5859375	54851.625	86783.78125	98187.484375	38830.36328125	57359.9296875	72946.546875	57756.84375	64778.921875	72336.4609375	69245.78125	75891.2265625	73582.5703125	63350.25390625	41698.0546875	61298.01953125	77822.6484375	73484.8125	79904.0234375	126773.6875	71841.8046875	67814.3828125	70817.8828125	82579.375	57363.21484375	83279.3828125	74370.34375	68438.21875	59284.07421875	69615.0625	92610.4453125	42332.10546875	90831.2265625	59262.234375	63753.33203125	71708.3125	81241.515625	88216.9296875	46668.46875	53557.4375	70141.265625	56012.78515625	74711.625	76152.46875	73771.4296875	74947.078125	72364.234375	60613.84375	35794.140625	61105.6015625	76004.109375	76851.9140625	81259.1875	114821.9375	69940.59375	70267.28125	71098.609375	76940.65625	69382.5703125	81665.9375	78019.734375	72340.90625	59748.08984375	67524.34375	85994.4765625	40910.453125	86989.0546875	56284.9765625
120	150	14353.099609375	33909.6796875	73264.25	70988.0625	94774.5078125	104685.75	31265.861328125	37202.4609375	58039.44921875	50691.82421875	14753.8349609375	87750.6484375	48358.06640625	112505.28125	14754.671875	32446.5625	72481.4609375	72270.921875	103361.3359375	98094.2109375	31809.421875	55215.96484375	40932.9609375	51670.98046875	47959.51171875	148715.8125	1433.21240234375	11403.8291015625	84457.4609375	52574.5390625	18169.123046875	13519.646484375	89750.75	83130.2578125	121925.8359375	138131.484375	59929.875	81510.828125	101726.6875	85746.359375	89406.3984375	102239.90625	97177.1328125	100881.125	100358.8125	91347.5859375	56629.2734375	83421.1875	106369.734375	111818.4609375	109223.390625	180157.0	99452.90625	97539.5078125	101514.34375	112774.640625	68125.2421875	116688.265625	105321.453125	100716.15625	79904.9765625	97592.796875	126577.265625	58413.5234375	121068.9296875	75555.6484375	85447.8203125	87237.65625	119377.5625	119638.828125	59011.09375	72817.1171875	98962.8515625	81404.453125	90266.8203125	105840.421875	99309.609375	105229.6875	97361.96875	89659.546875	56243.80078125	90496.1640625	100353.59375	110295.4296875	107169.046875	155240.625	97744.125	95898.03125	100718.9921875	105277.4609375	93197.9921875	115966.8359375	107134.5078125	103824.6171875	78399.671875	97386.15625	128144.59375	58028.12890625	108825.28125	79045.640625
150	180	16267.017578125	37619.05078125	76914.96875	74321.046875	100059.7578125	112477.796875	38856.15625	38827.3125	61534.01171875	51331.671875	11611.671875	82546.8828125	48750.34765625	121094.8828125	16014.26171875	35147.09765625	75726.015625	76510.640625	106762.296875	107225.921875	28634.86328125	59503.8203125	47248.98046875	67892.609375	51742.9921875	159727.078125	1766.5572509765625	11279.3193359375	86469.2421875	55843.29296875	13832.9140625	14143.189453125	92452.8984375	82995.0078125	127089.1171875	134678.65625	65218.46484375	84545.4921875	109350.234375	92164.859375	89260.2578125	109470.0078125	103606.53125	107679.6640625	108662.3046875	95219.1796875	58477.09765625	96831.109375	112246.6640625	116745.0546875	114886.578125	188774.71875	106762.3671875	95327.734375	107718.859375	117129.5625	72001.1796875	126134.2734375	110440.0625	112401.21875	85908.390625	101423.5546875	134885.46875	68254.609375	122394.25	78892.46875	93758.5625	94414.953125	123568.75	125387.3671875	63516.1875	84116.8984375	105934.203125	87974.9375	95503.515625	114168.453125	105425.140625	111709.90625	99371.921875	94589.3828125	55723.92578125	94885.0546875	105693.765625	121608.90625	118536.2734375	163394.515625	107521.0390625	111490.296875	108915.7890625	112941.71875	98439.1953125	123017.0390625	113552.125	114579.4296875	81697.921875	101980.734375	129747.9140625	61875.28125	108344.875	77382.2421875
180	240	17040.74609375	38661.59375	75839.140625	74589.9921875	99405.1328125	110978.5390625	37132.05859375	39957.6015625	57835.37109375	55211.203125	9987.1875	91206.7265625	48071.0859375	109689.7265625	16762.533203125	34962.265625	74419.34375	76254.203125	107173.078125	103667.3515625	34718.0625	58454.5625	46832.75390625	71910.8671875	51125.54296875	134922.578125	1392.5120849609375	11375.7724609375	77369.875	53488.8046875	11296.17578125	14580.740234375	93325.9140625	87607.1640625	124343.59375	133793.15625	72457.6875	85244.5234375	106018.3984375	89575.75	89371.4609375	105976.4296875	101185.265625	105810.84375	108199.765625	95827.9453125	57828.3984375	93953.1875	107979.640625	113407.7265625	110167.296875	170610.953125	105686.6953125	96364.7578125	105482.3359375	113831.8515625	73907.0390625	122594.1328125	107598.3125	110786.53125	82585.4609375	101112.265625	130939.3515625	66431.96875	111457.7109375	77073.1640625	89094.0	88576.1015625	120826.453125	122885.28125	64697.98046875	81627.90625	103251.0546875	87537.2109375	92552.6640625	112685.046875	104590.3359375	106674.0859375	97668.375	95298.359375	61540.109375	100065.90625	102956.515625	121562.6953125	113034.890625	153207.71875	106393.8984375	100582.1875	105560.71875	109290.515625	91503.46875	120786.5078125	111090.28125	114135.1875	79673.2578125	101778.0078125	132490.71875	61438.3125	107585.84375	76288.5234375
240	300	17765.302734375	37165.8671875	70167.140625	70605.8046875	90661.578125	104496.8828125	37274.87109375	39736.7109375	55600.8125	52664.98828125	7573.66357421875	84340.7890625	46873.83203125	72434.578125	17774.328125	34287.859375	68971.75	72482.7734375	101095.203125	94943.2421875	43401.46875	53677.77734375	47935.60546875	66740.6328125	50920.6640625	99188.59375	1290.87255859375	11267.720703125	72590.578125	49974.6484375	8025.3642578125	14313.7265625	84622.5078125	84563.875	111644.96875	117722.9453125	67727.0078125	81080.546875	97261.6953125	86262.3828125	77381.546875	95569.5625	91758.5625	95224.765625	100379.34375	88782.9453125	54858.09765625	87606.3671875	97426.109375	104869.0	100792.28125	152729.625	98875.28125	87824.109375	97534.0234375	105934.765625	71043.640625	112227.609375	99529.25	103380.671875	78602.4453125	90983.8828125	120970.359375	65674.796875	100802.515625	73294.765625	84477.4609375	85101.6015625	108400.8203125	111800.6328125	63860.9453125	76908.6796875	95909.2109375	84493.890625	87274.265625	103945.0078125	98169.921875	97722.7890625	90180.671875	87867.0546875	61678.00390625	88455.0859375	91790.3359375	112322.9375	101282.3203125	133105.234375	98696.2578125	91827.890625	96932.4453125	99892.875	86167.390625	110237.84375	99971.828125	107205.953125	77012.3046875	92633.6171875	118245.0	61584.21484375	89663.84375	71544.9375
300	360	18324.033203125	36016.02734375	63448.3515625	66061.609375	81946.546875	93061.9140625	37377.6171875	38965.84375	48188.33984375	54996.27734375	4002.530517578125	73303.0078125	47303.25390625	67456.8984375	18113.150390625	33319.1171875	63010.40234375	69473.9609375	89292.8125	86767.4296875	41703.23828125	49258.57421875	47672.2890625	62759.5234375	49295.875	81010.0390625	1004.009521484375	11441.490234375	64867.3125	47591.8359375	4978.7783203125	14044.2822265625	77487.5859375	78356.6171875	98392.203125	105776.5	65521.97265625	74202.4453125	87684.9609375	80504.4375	77557.4609375	87334.4765625	85559.4765625	88698.546875	94859.25	81648.5546875	56873.27734375	78120.75	88649.3203125	92234.875	88648.90625	130462.21875	88917.9453125	84830.9296875	88532.6171875	94098.6875	65544.328125	101296.640625	90764.1953125	95614.328125	73352.015625	84464.6875	114418.3125	60835.73828125	91426.0546875	70763.0859375	78572.28125	73911.5703125	96615.4609375	101947.6015625	61879.59375	71865.28125	88905.875	77450.671875	80535.5703125	96295.7109375	88736.5703125	88154.390625	82521.1953125	82472.7734375	56858.46484375	86083.734375	82732.640625	101234.125	92975.5546875	119263.6328125	89651.359375	83852.3515625	88545.1484375	90470.734375	77755.1875	100681.0390625	91031.90625	99580.9609375	72980.0078125	85350.0078125	116798.921875	59669.28125	85007.84375	68919.578125
360	480	18976.287109375	34170.16796875	54407.9609375	59652.4921875	69836.4140625	82362.109375	41549.26953125	37483.04296875	44276.51171875	52040.31640625	3718.965087890625	68333.359375	44376.91015625	42260.3671875	18825.00390625	33185.28515625	54868.6484375	62681.43359375	74635.1640625	75196.171875	40039.56640625	46651.03125	45752.9921875	65346.1875	43478.05859375	69610.515625	634.7700805664062	11424.6904296875	54355.0703125	43526.2265625	4364.08837890625	13587.486328125	68449.484375	64578.7890625	83258.6796875	92187.9453125	62471.1796875	65750.21875	74916.1640625	70016.4375	65182.65234375	74511.71875	72812.53125	77074.7734375	82815.6953125	71699.6171875	49233.0390625	68010.65625	73494.375	78284.7265625	76626.8984375	101046.640625	76107.3828125	68058.359375	75351.5546875	80309.609375	57307.51953125	87041.1171875	77795.8515625	82034.15625	65170.92578125	71202.53125	100248.078125	60988.78515625	73079.6484375	63990.37109375	65928.5390625	66457.125	80758.4921875	89063.6953125	54558.52734375	65289.70703125	75288.3359375	69748.1328125	68395.21875	83600.984375	77176.046875	76489.3515625	70418.0625	73394.578125	51567.8515625	73396.78125	70713.1328125	85813.3203125	77578.1328125	93575.4453125	77069.0078125	72794.0234375	75423.6015625	75707.75	66330.6015625	85782.7578125	77001.7109375	84527.5546875	62800.44921875	71893.40625	99518.3125	56431.25390625	68054.2890625	63274.9609375
480	600	19809.6875	32803.98828125	45235.9609375	51128.11328125	59001.79296875	67493.8046875	42137.0234375	34838.2421875	37411.4765625	48785.1015625	816.3475952148438	59080.34765625	41443.9296875	29141.171875	19265.8671875	30993.1640625	44956.7734375	56251.19921875	62333.08203125	61511.7109375	37912.25390625	39163.1015625	44964.2265625	51820.56640625	42046.36328125	43456.03125	339.8627624511719	11094.3798828125	46922.68359375	38448.0	3043.69921875	13395.21875	57813.796875	55878.86328125	67594.859375	73669.015625	55796.375	57036.765625	61104.75	60180.60546875	53108.87109375	59372.88671875	62372.00390625	62848.7421875	68662.234375	59389.41796875	45107.78125	56809.57421875	60189.74609375	65202.19921875	61100.5703125	75983.71875	62862.43359375	56180.99609375	60973.2578125	64682.7265625	49720.07421875	70174.28125	63483.0078125	66956.0	55039.32421875	57709.109375	83629.6328125	56299.40234375	57303.37109375	56051.17578125	57187.7109375	54659.55859375	64882.58203125	73058.0234375	49248.29296875	55263.2890625	62330.5859375	60748.7421875	61613.81640625	68282.3359375	63059.7421875	64237.796875	59086.5859375	62082.5	47552.01953125	60051.94921875	55986.27734375	72458.5546875	65078.9921875	69977.796875	64555.96484375	60350.6640625	61616.78125	61439.88671875	58431.71484375	70544.9296875	64224.86328125	69670.8125	53756.3203125	59360.23046875	83160.2109375	51160.390625	49554.51953125	54548.19921875
600	900	20481.4921875	30319.44140625	34815.41796875	42860.265625	44695.23046875	49157.06640625	40025.0	30930.2578125	30562.689453125	44400.8984375	-617.11474609375	50806.0	35744.9765625	17177.861328125	20095.2421875	30029.67578125	34523.39453125	44888.7109375	44932.4375	47047.64453125	39014.3515625	32037.458984375	40104.46875	42200.5	36603.27734375	38451.16015625	146.5906982421875	11110.26171875	31562.380859375	34075.34375	2596.38671875	12653.220703125	43591.50390625	46203.515625	50409.12890625	56675.3203125	47259.24609375	45837.3203125	46098.15234375	47833.90234375	43955.3984375	43662.19140625	48108.54296875	50091.47265625	54029.86328125	47031.50390625	35394.4609375	44258.2265625	46098.265625	48902.35546875	46610.2421875	55370.95703125	47700.3125	42847.53515625	46572.55859375	48494.1171875	39398.87109375	54185.76171875	48924.38671875	51467.515625	44792.75	43612.65234375	66238.8203125	47936.4453125	44362.296875	46556.55078125	42545.015625	42263.69921875	49775.83984375	54567.23828125	38965.03125	43894.82421875	48397.75	48279.546875	45993.765625	52458.80078125	49847.203125	48107.359375	47590.296875	49254.7265625	37761.90625	46762.83203125	44118.9921875	54957.01171875	49700.43359375	52950.9375	49183.51953125	45935.73046875	47415.6953125	46838.67578125	45073.95703125	55183.02734375	49224.515625	53439.3046875	43679.04296875	45009.96484375	63336.7265625	44583.0	36266.73828125	46321.05078125
900	1200	21024.0	28162.021484375	25926.6875	33659.55859375	32294.615234375	36205.55859375	37250.0234375	26393.068359375	24301.873046875	36940.77734375	-1356.9329833984375	33843.57421875	32005.779296875	17922.564453125	20682.2421875	28039.45703125	26274.650390625	35388.7109375	34413.66796875	33978.7421875	35637.72265625	25699.0859375	33604.7265625	32307.029296875	32126.82421875	33080.55078125	-141.35040283203125	11505.107421875	24732.060546875	30907.8203125	2070.698486328125	12387.12109375	34730.58203125	34900.45703125	38021.48828125	43954.04296875	36587.984375	37120.32421875	35112.0234375	37790.40234375	33872.625	33245.41796875	37707.2890625	41059.75	42264.62890625	36865.3515625	28914.611328125	32083.060546875	36727.80078125	37313.1171875	36562.265625	42085.828125	35423.09765625	35251.3359375	35158.26953125	37751.07421875	32999.3203125	42785.97265625	37464.96484375	39608.91015625	35481.88671875	33847.90625	52735.72265625	39695.5234375	37478.4140625	37713.44140625	33909.53125	33329.65234375	38250.8125	42610.3515625	31487.462890625	35940.20703125	37341.61328125	38397.64453125	37148.109375	41402.125	38852.140625	39753.171875	36203.48046875	39084.421875	29621.236328125	33887.01953125	34155.21484375	40962.953125	38803.796875	39584.7265625	37498.3515625	35726.43359375	35810.66796875	36127.59375	35982.67578125	44022.640625	38168.37109375	41813.92578125	35425.16015625	35604.08203125	51697.5078125	38428.93359375	30672.646484375	38339.5859375
1200	1500	21414.0546875	26143.44140625	21703.220703125	27822.474609375	25560.82421875	29569.478515625	33297.57421875	22476.53515625	19815.251953125	34263.1640625	-1769.2288818359375	24018.400390625	28962.5546875	16677.5625	20974.556640625	26067.76171875	22019.814453125	29627.958984375	26026.392578125	27716.603515625	31036.10546875	21801.42578125	28645.091796875	23803.056640625	30943.576171875	30576.783203125	-204.75392150878906	11782.283203125	22443.033203125	28104.111328125	1932.984130859375	12364.2119140625	29261.046875	29549.642578125	33309.79296875	37918.44921875	31632.515625	32604.583984375	29882.919921875	32668.76171875	31260.349609375	28083.087890625	32675.515625	35686.91015625	36548.2890625	31447.224609375	24880.466796875	27640.962890625	31041.205078125	32360.083984375	31266.7734375	36787.5703125	29998.138671875	28345.6640625	29561.640625	32302.361328125	26904.029296875	36643.0078125	32209.044921875	33908.8046875	31503.77734375	28235.0859375	45027.4453125	34542.55859375	32737.546875	32929.9921875	28710.27734375	27465.611328125	32623.072265625	35702.390625	26638.4140625	32298.580078125	32239.82421875	33880.3359375	30242.33984375	35800.90234375	33837.4765625	35343.61328125	32043.89453125	33654.94140625	25829.462890625	27012.46484375	30442.037109375	36702.5703125	34361.3125	35252.1796875	31638.1953125	31230.91015625	30728.66796875	32326.525390625	29949.029296875	37039.1171875	32118.853515625	35127.1328125	30409.67578125	30440.5625	48053.46484375	34466.9765625	25638.841796875	32292.025390625
1500	1800	21246.642578125	24052.1875	18575.796875	23110.92578125	20108.9296875	24591.791015625	29045.541015625	20196.373046875	16928.521484375	28458.203125	-92.3160629272461	16748.685546875	26593.66796875	10978.912109375	20849.64453125	24254.330078125	18757.828125	25474.748046875	19657.287109375	22960.9921875	28986.21484375	17858.8046875	25674.443359375	13829.7392578125	26691.57421875	17524.22265625	-166.75888061523438	11894.6201171875	18430.4296875	25702.240234375	2374.926513671875	12311.7001953125	26974.017578125	25170.423828125	28103.6328125	32429.890625	27481.427734375	29218.84375	25722.580078125	29559.564453125	26381.345703125	24382.763671875	29896.7890625	33250.7578125	31081.126953125	28041.978515625	23158.53125	23011.86328125	27945.298828125	28099.638671875	28097.9140625	30745.255859375	26084.66796875	23536.12890625	25131.548828125	29223.236328125	24746.740234375	32666.046875	27577.693359375	29470.359375	27029.9296875	25138.689453125	39365.51953125	30835.1015625	28806.11328125	29655.154296875	24634.947265625	25330.943359375	27366.001953125	31987.216796875	21062.359375	30345.296875	28333.294921875	29525.330078125	30461.05859375	30572.0078125	29548.447265625	31347.75390625	28893.458984375	30305.10546875	22623.517578125	24105.994140625	26623.845703125	33171.9609375	30304.103515625	30321.83984375	26841.015625	28554.515625	26481.056640625	27519.748046875	26411.125	32739.599609375	28611.162109375	29706.89453125	26477.556640625	26548.361328125	41630.70703125	29917.240234375	25629.91015625	28674.0
1800	2100	20827.138671875	22622.138671875	16106.814453125	20116.84375	17554.109375	21271.6015625	27245.14453125	17747.94921875	15491.244140625	24801.173828125	348.92803955078125	10026.2080078125	23751.12890625	10555.6943359375	20396.44921875	22790.755859375	16348.837890625	20937.611328125	17431.5078125	19252.009765625	24147.267578125	16856.759765625	21263.52734375	15193.859375	23777.55859375	19156.447265625	-228.65670776367188	11904.521484375	16364.0185546875	22645.46875	2818.93896484375	12351.5830078125	24184.349609375	21179.265625	23762.64453125	29468.3359375	23076.568359375	26986.767578125	23294.603515625	25936.03515625	23914.47265625	20976.322265625	26137.646484375	31116.771484375	28292.044921875	25037.443359375	20465.34765625	19099.40234375	25723.41015625	25028.0546875	24374.392578125	27113.203125	22457.98828125	20559.84375	21909.984375	26165.380859375	21122.1640625	28896.474609375	24376.03515625	25638.568359375	23958.37109375	22546.220703125	36283.7265625	27231.205078125	27653.1484375	26131.734375	22115.080078125	23578.078125	23853.224609375	26832.38671875	19178.837890625	26768.96875	25115.92578125	27045.701171875	25858.96484375	27381.0234375	26789.50390625	29020.125	26271.154296875	27280.90234375	19700.93359375	18323.390625	24254.005859375	29604.7421875	26712.306640625	27560.509765625	23864.818359375	24805.294921875	23318.078125	25681.61328125	23784.318359375	29438.150390625	24767.533203125	25993.349609375	23298.013671875	23895.68359375	38878.16796875	27078.17578125	25951.732421875	25827.4609375
2100	2400	20120.40234375	20900.107421875	13951.900390625	17124.583984375	14486.1298828125	17677.5703125	22561.224609375	15612.462890625	13593.8525390625	18190.2734375	736.6565551757812	9449.2138671875	20243.609375	11563.4521484375	19715.048828125	21034.73046875	14379.3662109375	18829.603515625	14111.93359375	16683.72265625	21902.23046875	14913.7666015625	17903.7890625	5390.85302734375	20692.65234375	9540.5419921875	-288.13714599609375	11711.140625	14092.7353515625	20095.2421875	3124.6123046875	12366.1201171875	22694.123046875	18844.330078125	20666.65234375	27696.64453125	22135.56640625	25216.775390625	20795.7421875	24115.40625	22652.630859375	19057.205078125	24020.85546875	28957.306640625	25463.60546875	22106.103515625	18846.525390625	15944.962890625	21652.53125	22736.685546875	21989.62109375	24221.9765625	19778.869140625	18807.09765625	19441.357421875	22836.482421875	18616.96875	26298.55078125	21335.029296875	23188.447265625	22071.599609375	19508.46484375	37843.65234375	23830.072265625	22335.189453125	23936.568359375	19820.392578125	20043.44921875	21351.63671875	24165.974609375	16847.861328125	24993.48828125	23364.89453125	24475.671875	25479.91015625	24944.76171875	24555.119140625	26760.701171875	24026.556640625	24904.994140625	20069.564453125	17278.41015625	23248.00390625	26710.466796875	23679.9375	24200.7421875	21110.10546875	22213.787109375	20318.82421875	22570.615234375	21066.521484375	26519.947265625	22037.326171875	23893.7578125	22290.109375	21458.16796875	34637.18359375	24408.373046875	22946.423828125	23036.623046875
2400	2700	19293.794921875	18916.111328125	12799.4013671875	15218.15625	12604.0263671875	16578.615234375	18724.255859375	13477.572265625	12390.0224609375	17496.59375	1681.0230712890625	5051.111328125	19304.05859375	6527.97216796875	18947.3515625	18848.044921875	13071.9423828125	16233.599609375	11939.265625	14624.7919921875	19385.51171875	13100.87109375	16015.236328125	7113.904296875	18133.9453125	8097.38330078125	-437.9178771972656	11719.7373046875	12882.7509765625	18745.380859375	3456.229248046875	11955.2724609375	20574.888671875	18971.52734375	19198.74609375	24735.6640625	18559.65234375	23708.4921875	19055.744140625	22909.89453125	21678.435546875	17249.08984375	22522.041015625	28270.453125	23370.388671875	20818.314453125	16578.09765625	14015.302734375	21728.8515625	21156.283203125	21494.6171875	21161.12890625	19543.783203125	18994.697265625	17473.7109375	21940.794921875	16595.5078125	24221.513671875	19745.345703125	20528.1953125	20021.677734375	17993.94921875	31190.421875	22872.61328125	24900.974609375	21664.783203125	19343.552734375	19306.224609375	18992.17578125	23263.71484375	13989.9189453125	23821.74609375	20815.474609375	23370.298828125	21644.384765625	22560.0625	22099.38671875	25466.451171875	22532.884765625	22680.919921875	16701.212890625	15912.36328125	21436.0390625	24981.28515625	22285.80859375	23397.8359375	19212.431640625	21224.671875	18953.408203125	20851.23046875	20391.779296875	24729.1875	19441.359375	21177.556640625	19871.4921875	19143.708984375	33325.8125	22095.50390625	23100.98828125	20869.033203125
2700	3000	18691.583984375	17439.521484375	11547.26953125	13777.0478515625	12295.341796875	13705.9814453125	19909.3046875	12696.416015625	10762.3876953125	16462.9375	674.958740234375	3493.27099609375	16977.771484375	2922.98291015625	18178.486328125	17962.0390625	11661.5	14714.6552734375	11467.8544921875	13487.6142578125	19128.87109375	11684.83984375	14259.1865234375	6772.27099609375	17396.96484375	11494.4150390625	-328.06146240234375	11403.5625	11697.904296875	16866.9375	3452.19091796875	11863.9189453125	19905.873046875	17364.6328125	17843.33203125	22647.09765625	16737.20703125	22540.73046875	18678.005859375	20925.224609375	19641.912109375	16184.2646484375	20771.71875	24458.396484375	22816.41015625	19625.759765625	14305.09765625	11999.1806640625	19897.697265625	20558.365234375	18918.396484375	23691.7890625	17897.12109375	20170.515625	16298.673828125	20491.6953125	16957.25	22849.712890625	18161.234375	19487.88671875	19176.6171875	17285.732421875	32063.31640625	21257.84375	24461.580078125	20521.322265625	18542.3671875	17946.431640625	19024.1640625	20918.78125	12589.5078125	22699.07421875	20557.677734375	22027.173828125	22138.61328125	21322.318359375	21649.36328125	24489.283203125	20207.5859375	22057.94921875	16817.7265625	16008.32421875	20429.40625	24380.076171875	21071.150390625	22626.962890625	18205.6796875	17106.318359375	17993.791015625	20028.96875	19343.486328125	23673.740234375	18836.3125	20835.87109375	18769.962890625	19197.806640625	31001.05859375	18857.490234375	21305.873046875	19077.51953125
