frame_start	frame_end	Left-Cerebral-White-Matter	Left-Cerebellum-White-Matter	Left-Cerebellum-Cortex	Left-Thalamus	Left-Caudate	Left-Putamen	Left-Pallidum	Brain-Stem	Left-Hippocampus	Left-Amygdala	CSF	Left-Accumbens-area	Left-VentralDC	Left-choroid-plexus	Right-Cerebral-White-Matter	Right-Cerebellum-White-Matter	Right-Cerebellum-Cortex	Right-Thalamus	Right-Caudate	Right-Putamen	Right-Pallidum	Right-Hippocampus	Right-Amygdala	Right-Accumbens-area	Right-VentralDC	Right-choroid-plexus	AirCavity	Skull	Vermis	Pons	CSF-ExtraCerebral	Head-ExtraCerebral	ctx-lh-bankssts	ctx-lh-caudalanteriorcingulate	ctx-lh-caudalmiddlefrontal	ctx-lh-cuneus	ctx-lh-entorhinal	ctx-lh-fusiform	ctx-lh-inferiorparietal	ctx-lh-inferiortemporal	ctx-lh-isthmuscingulate	ctx-lh-lateraloccipital	ctx-lh-lateralorbitofrontal	ctx-lh-lingual	ctx-lh-medialorbitofrontal	ctx-lh-middletemporal	ctx-lh-parahippocampal	ctx-lh-paracentral	ctx-lh-parsopercularis	ctx-lh-parsorbitalis	ctx-lh-parstriangularis	ctx-lh-pericalcarine	ctx-lh-postcentral	ctx-lh-posteriorcingulate	ctx-lh-precentral	ctx-lh-precuneus	ctx-lh-rostralanteriorcingulate	ctx-lh-rostralmiddlefrontal	ctx-lh-superiorfrontal	ctx-lh-superiorparietal	ctx-lh-superiortemporal	ctx-lh-supramarginal	ctx-lh-frontalpole	ctx-lh-temporalpole	ctx-lh-transversetemporal	ctx-lh-insula	ctx-rh-bankssts	ctx-rh-caudalanteriorcingulate	ctx-rh-caudalmiddlefrontal	ctx-rh-cuneus	ctx-rh-entorhinal	ctx-rh-fusiform	ctx-rh-inferiorparietal	ctx-rh-inferiortemporal	ctx-rh-isthmuscingulate	ctx-rh-lateraloccipital	ctx-rh-lateralorbitofrontal	ctx-rh-lingual	ctx-rh-medialorbitofrontal	ctx-rh-middletemporal	ctx-rh-parahippocampal	ctx-rh-paracentral	ctx-rh-parsopercularis	ctx-rh-parsorbitalis	ctx-rh-parstriangularis	ctx-rh-pericalcarine	ctx-rh-postcentral	ctx-rh-posteriorcingulate	ctx-rh-precentral	ctx-rh-precuneus	ctx-rh-rostralanteriorcingulate	ctx-rh-rostralmiddlefrontal	ctx-rh-superiorfrontal	ctx-rh-superiorparietal	ctx-rh-superiortemporal	ctx-rh-supramarginal	ctx-rh-frontalpole	ctx-rh-temporalpole	ctx-rh-transversetemporal	ctx-rh-insula
0	30	55.476417541503906	60.559906005859375	73.61636352539062	68.3791732788086	70.1673583984375	53.75905990600586	62.889495849609375	64.45793914794922	114.82784271240234	181.55087280273438	64.044677734375	37.5111083984375	114.0144271850586	11.727592468261719	58.8966064453125	71.1443099975586	76.13811492919922	72.40116119384766	46.164306640625	82.74053955078125	177.5245361328125	128.49681091308594	66.68777465820312	19.43772315979004	59.62291717529297	73.75106811523438	34.40519332885742	46.06322479248047	83.71021270751953	96.64112091064453	78.13859558105469	42.00790786743164	106.76860809326172	98.00231170654297	58.04887390136719	45.47236633300781	61.00486755371094	48.564693450927734	63.25885009765625	65.16259765625	120.91222381591797	58.741783142089844	88.50303649902344	67.58353424072266	130.27993774414062	67.25753784179688	97.43307495117188	61.68766403198242	105.96034240722656	41.577205657958984	107.19908905029297	84.03675842285156	50.67311096191406	35.143131256103516	58.52859878540039	72.5719223022461	66.17936706542969	47.77239990234375	67.7761459350586	60.415096282958984	100.84994506835938	57.60051345825195	122.97274780273438	58.144893646240234	75.68086242675781	160.0742950439453	71.52782440185547	110.40818786621094	45.21603775024414	87.286376953125	129.14483642578125	59.7147216796875	43.216548919677734	73.1932601928711	80.07727813720703	51.72474670410156	92.95526885986328	90.14469146728516	107.78622436523438	68.2140121459961	118.49634552001953	55.61132049560547	116.17359924316406	54.929195404052734	127.69866943359375	95.47040557861328	89.44609832763672	43.21491622924805	82.52946472167969	96.23876953125	116.72047424316406	68.39981079101562	68.74010467529297	51.934207916259766	106.53304290771484	65.75650024414062	51.049171447753906	126.3860092163086	112.94796752929688	146.68592834472656
30	60	4318.033203125	4978.830078125	7145.638671875	6531.08935546875	5837.2734375	7300.69189453125	5336.46533203125	4754.15478515625	5785.7578125	5225.0419921875	3841.698974609375	6864.31396484375	6016.52783203125	4375.32177734375	4393.2177734375	5048.48876953125	6960.1357421875	6586.806640625	6198.67919921875	7381.21142578125	5226.7392578125	5528.78515625	5214.36474609375	7261.1845703125	5924.61572265625	5007.8525390625	1076.8109130859375	1925.536376953125	7043.79931640625	5153.9345703125	6090.0400390625	1439.9539794921875	7130.009765625	7009.697265625	6781.12451171875	8286.2080078125	4260.455078125	6457.6162109375	6527.26318359375	5665.6220703125	7158.31640625	6467.03173828125	7028.826171875	8149.49951171875	7588.33154296875	5812.6826171875	6511.16845703125	5714.470703125	7261.85107421875	7543.39501953125	7445.93115234375	9582.0908203125	6028.59130859375	6686.76513671875	6285.18896484375	7448.23095703125	7429.33349609375	6641.82080078125	6813.6982421875	5835.4365234375	6766.806640625	6645.462890625	6576.46533203125	4369.67041015625	9152.9111328125	7700.6103515625	6689.74853515625	8197.7548828125	7145.4580078125	8461.4541015625	4406.23681640625	6115.90478515625	6619.7783203125	5698.40625	7593.771484375	6573.6533203125	7662.373046875	7739.4306640625	7943.63427734375	6289.498046875	6867.1357421875	5844.296875	8331.23046875	6621.20361328125	7661.181640625	8580.34375	6334.86572265625	7235.95703125	6597.470703125	7557.7568359375	8096.65234375	7100.76171875	7008.46826171875	5889.79296875	7389.583984375	6581.5048828125	6819.53662109375	5398.47119140625	9218.0244140625	7298.8388671875
60	90	15025.048828125	18637.8828125	24794.82421875	22330.23046875	19783.810546875	26673.111328125	17813.517578125	16501.0625	20064.328125	16503.357421875	13034.8486328125	23875.2578125	17749.564453125	17021.58203125	15516.4345703125	17248.5390625	23758.904296875	22484.19140625	21249.5390625	25285.826171875	17614.859375	18471.275390625	16198.326171875	22261.39453125	18717.103515625	17283.970703125	3303.8291015625	6032.0419921875	24957.287109375	18135.193359375	19173.591796875	4612.36376953125	22181.978515625	23768.0625	22971.607421875	29864.427734375	15717.7412109375	21530.451171875	23269.203125	19280.06640625	24481.115234375	21975.494140625	23605.017578125	26628.37890625	24329.38671875	20164.458984375	18960.634765625	20099.806640625	25103.9375	23781.486328125	23417.20703125	31642.310546875	20455.115234375	25372.91015625	21218.919921875	26436.599609375	23900.40234375	23444.671875	23179.78515625	20797.921875	21220.314453125	22156.201171875	23140.232421875	15642.875	30067.830078125	24106.38671875	22552.357421875	24815.96875	24409.912109375	28319.953125	15366.5068359375	20294.263671875	23420.4765625	19137.673828125	23464.740234375	22519.671875	24106.08984375	27092.15234375	24473.83984375	21312.201171875	19076.83203125	20046.587890625	26393.119140625	23816.326171875	24879.9765625	32177.859375	21731.2734375	24469.947265625	22748.318359375	26188.361328125	25621.65234375	24953.599609375	23605.833984375	21156.201171875	22511.18359375	22756.61328125	23164.0625	16476.953125	29033.33984375	23519.15234375
90	120	27519.126953125	32550.955078125	43945.37890625	40682.359375	38352.7578125	46802.63671875	32782.0390625	28239.357421875	32876.28125	29308.7265625	22976.25	43130.1015625	32072.20703125	28846.48046875	28112.640625	31489.15625	43331.82421875	40757.84765625	40722.68359375	46475.5859375	31285.677734375	32523.353515625	28179.75	37509.625	30818.08984375	29251.931640625	5966.02734375	10981.681640625	45520.3125	31871.734375	33095.25	8761.8212890625	41972.89453125	39925.4765625	42866.56640625	51138.35546875	27443.904296875	38729.375	42344.828125	34718.07421875	41540.25	39252.44921875	41413.24609375	46427.9609375	42108.3515625	37174.67578125	33876.140625	36854.359375	44093.8046875	40960.046875	43126.60546875	55717.26953125	38163.77734375	43315.2109375	39352.03125	47490.9765625	42721.5	42575.90234375	41536.99609375	37977.71875	38773.33203125	40310.96484375	42454.703125	29760.15234375	51011.3828125	41183.0546875	41082.41796875	44878.23828125	43736.48046875	49005.484375	27820.076171875	36862.2109375	42111.90234375	34421.63671875	44301.65625	40655.9296875	42659.2890625	46166.20703125	43486.76953125	38897.29296875	32023.21484375	36110.25390625	45956.69140625	42415.73828125	45392.79296875	54564.74609375	38997.5625	43382.8125	40181.3984375	46175.44921875	46243.6796875	45150.7578125	42953.18359375	38638.08984375	40469.84765625	40088.4375	41278.6328125	29112.900390625	50351.51171875	40622.73046875
120	150	38075.1796875	45165.66015625	60993.5078125	56108.109375	53738.73046875	65542.671875	44765.23828125	38727.53515625	44398.6484375	40496.9609375	30767.6484375	59658.4375	43323.49609375	35787.11328125	38704.19921875	44296.06640625	61191.8828125	56502.08984375	58377.55859375	63922.04296875	42989.53125	42736.21875	37782.7109375	54257.15234375	42591.80859375	37050.36328125	7538.09375	14354.0810546875	64161.33984375	45724.734375	44221.02734375	11562.2431640625	56448.38671875	55537.46484375	59110.69140625	70567.953125	39048.26953125	53858.6484375	58375.0	49941.546875	55996.91015625	54584.3828125	57448.20703125	62459.2265625	56726.296875	52288.6171875	46475.75390625	50186.28515625	60176.55078125	59779.05859375	59005.23046875	78521.6328125	52116.7109375	59773.6953125	54914.5234375	64490.3984375	54462.34375	58805.875	57552.59375	53248.2734375	52265.60546875	55702.33984375	58173.05859375	39820.046875	68266.6953125	54004.48046875	55329.05859375	57110.97265625	62306.19921875	66090.90625	36236.86328125	50240.9921875	58268.46484375	48689.12890625	56716.08984375	55571.98828125	57514.20703125	63458.875	57946.90234375	55383.7265625	46131.94921875	50886.32421875	61217.9453125	59986.91015625	60051.3359375	73782.4609375	53027.84765625	59357.12890625	55362.859375	62644.24609375	62161.08203125	62829.0546875	58233.5625	53293.39453125	53865.98828125	56257.13671875	59603.3203125	40060.953125	65583.5	55927.625
150	180	40820.28515625	48792.20703125	63954.76171875	58761.17578125	55878.5859375	70911.7734375	49702.1328125	39874.33203125	46642.265625	42107.5625	31608.966796875	60684.9609375	44065.53125	38070.0390625	41315.234375	47223.328125	63745.1328125	59674.99609375	60423.41015625	68658.2421875	44188.2109375	45990.5234375	41342.11328125	59733.8203125	44668.91015625	39933.4375	7852.6630859375	14513.361328125	66469.1171875	48332.08984375	44944.1953125	11961.044921875	58015.625	57358.28125	61115.09765625	71453.3984375	41480.66015625	56192.26171875	62150.734375	53231.96484375	57211.4609375	57737.1953125	60441.83203125	66045.6015625	59335.390625	54622.796875	47694.10546875	54378.2265625	62889.4609375	61615.5546875	61224.59375	81283.3125	54938.16015625	62180.04296875	57732.859375	66903.9453125	57453.5546875	62637.79296875	59657.1953125	57342.75	55618.38671875	58012.34765625	61586.74609375	44590.93359375	70441.4921875	56542.734375	59028.53515625	60511.015625	63392.109375	68596.5625	39342.50390625	55379.69140625	61492.79296875	52216.73828125	59181.7890625	59050.265625	60405.22265625	67116.328125	59967.5859375	57587.49609375	47350.1171875	52983.65625	63933.14453125	64228.05859375	64742.18359375	78034.8203125	55820.03125	64693.33203125	58418.21875	65947.9609375	63601.15234375	65290.59375	60378.78515625	56487.4921875	55459.91015625	57837.83984375	60782.4296875	42950.46875	68322.1484375	56632.11328125
180	240	40555.83203125	48885.3046875	63083.51171875	58923.83984375	56011.39453125	70219.5859375	49865.0625	40425.65625	45413.91015625	43300.6875	30824.783203125	63398.0	43362.6640625	36257.83984375	41051.34375	46657.60546875	62554.64453125	59395.5078125	60939.5	67529.921875	46283.83984375	45333.62890625	40944.11328125	61336.375	44410.046875	36177.265625	7657.83740234375	14427.6181640625	62559.83984375	46805.734375	43457.44921875	12281.3359375	58632.21484375	56736.69921875	60113.375	69919.7578125	43646.1484375	56211.1171875	60546.94140625	52216.55078125	56175.7421875	56439.4765625	59461.9609375	64541.12109375	59038.00390625	54643.00390625	47183.6953125	53050.04296875	61049.71484375	59924.18359375	59044.1328125	75449.0546875	53967.0390625	61216.05859375	56542.63671875	65087.41015625	57015.5390625	61088.2109375	58095.0390625	56258.9140625	53950.8828125	57608.7109375	60338.65234375	43631.5546875	65763.5	54894.99609375	57584.12890625	58346.2265625	61812.203125	67073.7734375	40133.890625	54398.68359375	59840.90234375	51820.75390625	57257.0	57991.90234375	59936.16015625	64504.40234375	59065.2109375	57124.82421875	48276.39453125	53284.57421875	62149.328125	63533.91796875	61847.07421875	73286.09375	54923.5390625	60954.14453125	56920.296875	63953.34765625	61593.48828125	64236.234375	59191.22265625	55747.09375	54502.4609375	57255.1640625	60686.125	42281.63671875	67605.703125	55523.29296875
240	300	38705.5390625	46332.22265625	58394.3515625	55948.5234375	50942.890625	66626.6484375	47981.34375	38730.6875	43572.9296875	40687.9140625	28608.611328125	58955.64453125	41976.171875	30785.037109375	39305.78125	44517.76171875	58112.06640625	56689.48828125	57227.90625	63580.3359375	48369.34375	42843.98828125	39782.734375	57679.91015625	42968.77734375	32219.9375	7389.78271484375	13926.416015625	58009.703125	43902.0	39508.83203125	12056.966796875	53964.47265625	53625.375	54825.32421875	63131.78515625	40390.25390625	53364.50390625	55936.5859375	50389.4765625	51118.27734375	51699.29296875	54346.98046875	59189.49609375	54783.48046875	51448.5234375	44247.37109375	48818.2265625	55870.328125	56059.109375	54642.1640625	69705.65625	50170.1875	55813.328125	52473.01171875	60424.05078125	53874.984375	56069.27734375	53747.05859375	52471.30078125	51060.98828125	52773.48046875	55516.796875	42060.8359375	60828.875	51783.55078125	54816.6796875	55354.66796875	55678.07421875	61440.67578125	38786.828125	51837.0703125	55915.08203125	49667.80859375	52842.28125	53787.03125	56176.25390625	59725.4609375	54956.234375	53307.24609375	46683.27734375	48265.37890625	56364.87890625	59061.24609375	56046.01171875	65512.06640625	50662.5546875	56131.41015625	52418.98828125	59233.0	57656.8125	58667.3046875	53693.87890625	52098.30859375	51705.12890625	52800.84375	55135.4921875	41742.67578125	60731.03125	51986.00390625
300	360	36623.97265625	43503.07421875	53168.48046875	52365.98046875	46213.6328125	60810.796875	45834.5625	37131.04296875	40068.48828125	40375.09765625	26079.029296875	52519.25	41113.1875	28581.541015625	37155.05859375	41812.55078125	53190.1015625	54351.2578125	51356.7265625	59124.84375	46356.15234375	40045.05859375	38657.08984375	52542.62109375	41746.16015625	28615.970703125	7080.833984375	13551.4521484375	52692.625	41799.4921875	35738.51171875	11896.8349609375	50244.26953125	49203.390625	49366.0	57439.4296875	37680.06640625	49707.71484375	51087.23046875	47301.8515625	48487.02734375	47796.88671875	51171.84765625	54452.15625	51281.12109375	47761.3984375	42760.3671875	44459.43359375	51131.1796875	50775.0078125	49339.83984375	61484.3125	45968.59765625	53361.40234375	48126.37890625	54541.02734375	49684.765625	51098.1171875	49055.71484375	48265.921875	47807.03125	49348.75	51926.296875	39446.78125	56551.44921875	48929.4609375	51442.05859375	49641.94921875	50214.40234375	55981.28515625	36728.4296875	48327.453125	51667.34375	46142.50390625	48891.13671875	49868.4765625	51499.0546875	54854.44140625	50816.07421875	49936.52734375	42930.09375	45328.55078125	51364.796875	53609.1015625	51200.40625	60131.56640625	46247.4921875	52283.5625	47924.73828125	53806.71484375	52579.40625	53861.56640625	48847.45703125	48222.37890625	48749.11328125	48680.0546875	53378.40625	40099.91796875	57313.85546875	49250.3359375
360	480	33694.1875	39581.43359375	46180.9140625	47876.8515625	40854.38671875	55535.70703125	44941.65625	34737.74609375	37383.61328125	37697.1953125	24121.677734375	48654.578125	38438.46484375	24491.85546875	34144.46484375	39181.44140625	46798.5546875	49563.91015625	44718.046875	52383.06640625	42675.27734375	37673.52734375	36462.1171875	48815.69140625	37399.84375	26598.890625	6515.9638671875	12939.625	45281.37109375	38654.15625	31403.201171875	11591.275390625	45130.7421875	42773.29296875	42884.73828125	50649.1484375	36030.1796875	44491.80859375	44769.3203125	42062.8828125	42052.41015625	42123.23046875	44851.546875	47775.82421875	45443.9140625	42771.421875	38342.32421875	39361.15234375	44149.8359375	44046.6328125	43420.0859375	51109.7890625	40549.96484375	45698.64453125	42216.8515625	47522.359375	43959.77734375	45311.484375	43043.21484375	42490.08203125	42809.8359375	42948.34765625	46152.91015625	38151.83203125	48412.86328125	44113.328125	44835.1875	44473.0078125	43431.5859375	49113.2578125	33891.5546875	44211.37890625	44888.01953125	42187.6796875	42722.515625	44303.0390625	45799.7421875	48302.2421875	44584.12890625	44654.0546875	39031.9296875	39736.1171875	44889.89453125	46276.53125	44181.015625	50030.8125	40754.2265625	45950.14453125	42101.4609375	46413.56640625	45693.96484375	46755.0703125	42550.0546875	41938.015625	42889.72265625	42116.62109375	46224.90234375	37271.5078125	49425.95703125	44651.3203125
480	600	30507.05078125	35932.95703125	38928.5859375	41608.89453125	35037.796875	47719.56640625	41827.1875	31471.072265625	33256.6015625	34212.296875	21055.484375	42183.37890625	35388.63671875	21632.255859375	30768.275390625	34747.84375	38924.33984375	44653.71484375	37925.1484375	44550.828125	38586.67578125	33401.078125	34209.3125	40843.2109375	35265.33984375	22059.1796875	6011.01220703125	12113.33203125	39101.96875	34441.125	26461.177734375	11422.5830078125	39518.69921875	37802.92578125	36248.02734375	41776.609375	32089.275390625	39260.62109375	37935.22265625	36986.40625	36185.32421875	35360.88671875	39272.82421875	40345.7421875	39327.828125	36847.64453125	34291.9765625	33973.484375	37340.828125	37484.5	36334.61328125	41779.69921875	34432.74609375	39110.421875	35725.91015625	39670.80859375	38734.29296875	37883.28125	36573.078125	35999.57421875	36833.7109375	36444.078125	38656.1953125	34972.609375	40995.09765625	38866.265625	39792.77734375	37619.29296875	36193.68359375	41387.8984375	30319.951171875	38458.66015625	38048.234375	37157.875	37395.71875	37334.84765625	38754.9609375	41405.44921875	38118.6875	38632.39453125	34904.3203125	33941.83203125	37148.6015625	39748.26171875	37632.5390625	40389.46875	34823.99609375	39103.36328125	35585.27734375	39151.65234375	40135.7578125	39399.76171875	36320.93359375	35591.6328125	37108.2421875	35839.16796875	38945.421875	33594.46484375	41025.7734375	38666.65625
600	900	27057.544921875	31115.251953125	30689.142578125	35385.57421875	28378.224609375	37880.53515625	36208.01171875	27462.435546875	28472.697265625	30891.091796875	18221.154296875	36014.90625	30704.494140625	18891.568359375	27319.240234375	30896.6015625	30586.041015625	36518.60546875	29458.23046875	36849.34375	35683.8359375	28536.630859375	30090.267578125	34224.15234375	30815.587890625	19803.01953125	5547.26416015625	11436.8974609375	29459.751953125	30526.037109375	21592.86328125	10911.4931640625	32132.322265625	31203.73828125	29489.10546875	33630.2734375	27895.3359375	32767.935546875	30422.59765625	30801.609375	30143.078125	28399.36328125	31995.7890625	33277.07421875	32264.45703125	30544.65625	28371.232421875	27897.23828125	30505.181640625	29770.0546875	29680.896484375	33839.3046875	28073.255859375	31570.564453125	29270.142578125	31690.357421875	31735.2578125	31102.435546875	29786.71875	29173.900390625	30954.197265625	29467.548828125	31683.94921875	30129.708984375	33488.5546875	32519.927734375	32255.787109375	30821.724609375	29453.212890625	32913.296875	25382.0703125	31622.1171875	30952.662109375	30862.38671875	30281.560546875	30422.359375	32037.037109375	32945.7578125	31717.33984375	31609.01171875	28951.8046875	28060.27734375	30565.96484375	31529.640625	30597.298828125	32840.76171875	28432.134765625	31755.02734375	29235.2109375	31339.654296875	32452.240234375	32315.61328125	29453.955078125	28844.708984375	30987.9921875	28863.296875	31419.818359375	29392.65234375	32868.30078125	32852.2734375
900	1200	24410.1875	27092.4765625	23807.69921875	28698.0234375	22207.609375	30517.431640625	31837.423828125	23573.48046875	24108.080078125	26249.501953125	15955.9755859375	28282.708984375	27207.728515625	17594.857421875	24639.634765625	27055.47265625	24068.94140625	29710.537109375	24321.482421875	29490.611328125	30855.75390625	24129.71875	25576.884765625	27538.384765625	26780.853515625	17653.068359375	5314.40673828125	11274.2412109375	23372.904296875	27455.248046875	17878.2890625	10868.962890625	27088.91796875	25462.50390625	24430.876953125	27614.443359375	23206.3828125	27478.56640625	25037.845703125	25803.525390625	25071.271484375	23775.322265625	26723.267578125	27980.205078125	26520.212890625	25597.263671875	24206.9140625	22539.525390625	25692.705078125	24682.68359375	25050.3359375	28642.390625	23107.32421875	26703.7265625	24281.052734375	26260.857421875	26759.078125	26387.09375	24496.033203125	24063.3125	25858.9453125	24641.580078125	25814.408203125	25570.89453125	28433.25390625	27365.240234375	27269.302734375	25567.19140625	24464.787109375	27098.837890625	21997.8203125	26861.84765625	25460.25	25940.73828125	25441.130859375	25496.203125	26578.01171875	28055.1640625	25979.595703125	26279.80078125	24194.724609375	22661.2421875	25197.8203125	25235.30859375	25346.162109375	27349.265625	23472.9296875	26313.51953125	24062.740234375	25865.771484375	26917.681640625	27191.763671875	24496.724609375	23938.193359375	26121.587890625	24229.0625	26431.09375	25555.556640625	28039.03125	28053.720703125
1200	1500	23123.6171875	24511.248046875	20454.849609375	24449.482421875	18972.810546875	26627.5859375	28349.65625	20583.173828125	21273.142578125	23901.4453125	14494.830078125	23639.458984375	24464.9140625	16404.26171875	23236.6171875	24508.509765625	20654.12109375	25601.62890625	20276.638671875	25515.53125	27045.36328125	21498.60546875	22746.73046875	23696.255859375	25164.8984375	16460.98828125	5256.06591796875	11231.28515625	20405.49609375	24839.80859375	16030.3740234375	10974.220703125	24189.671875	23014.892578125	22522.298828125	24995.78515625	21215.03515625	24897.8046875	22467.57421875	23515.818359375	23352.759765625	21557.859375	24289.982421875	25330.900390625	23874.833984375	23091.8125	21616.240234375	20394.56640625	23131.375	22284.818359375	22684.587890625	26407.4140625	20788.33203125	23444.236328125	21813.58984375	23628.560546875	23302.958984375	23874.474609375	22116.111328125	21633.6640625	23635.1015625	22080.2734375	22877.33203125	22928.58203125	25286.845703125	24805.642578125	24328.59765625	22535.748046875	22051.224609375	24165.50390625	19672.591796875	24642.9375	22878.984375	23733.564453125	22674.26953125	23061.10546875	24088.484375	25610.615234375	23507.240234375	23373.33984375	22059.162109375	20072.3203125	23043.703125	23203.6640625	23102.73046875	25344.970703125	20967.908203125	23629.912109375	21703.388671875	23516.3671875	23421.69921875	24133.189453125	21789.794921875	21226.37109375	23313.521484375	21651.083984375	24550.451171875	23720.078125	24452.623046875	24791.919921875
1500	1800	21916.51171875	22137.244140625	17925.45703125	21036.0625	16673.546875	23469.77734375	25069.3671875	18724.6875	18934.48046875	20936.615234375	13710.6552734375	20665.9921875	22402.783203125	15559.697265625	21983.154296875	22281.1484375	18079.65625	22470.083984375	17295.302734375	22591.57421875	24844.4375	18857.212890625	20477.298828125	19273.015625	22328.712890625	14718.3232421875	5248.04931640625	11162.642578125	17724.05078125	22747.78125	14795.7939453125	10984.083984375	22537.234375	20597.84765625	20385.0546875	22591.78515625	19124.326171875	22829.591796875	20431.087890625	21850.013671875	21247.60546875	19831.87109375	22639.927734375	23445.033203125	21754.984375	21300.078125	20384.212890625	18496.646484375	21463.84375	20389.4453125	21161.880859375	24024.966796875	19058.9921875	21345.796875	19862.16015625	21840.62109375	21418.271484375	22125.396484375	20074.09765625	19797.71484375	21349.29296875	20395.75390625	20630.400390625	21152.478515625	22759.3046875	22753.8515625	22136.67578125	20936.4921875	19924.8671875	22350.390625	17481.74609375	22967.9375	20858.177734375	21676.7265625	21799.64453125	20674.98828125	22083.126953125	23344.2109375	21443.71484375	21510.275390625	20372.462890625	18616.404296875	20859.732421875	21502.291015625	21292.05859375	23039.802734375	19002.111328125	21798.478515625	19749.384765625	21399.990234375	21589.9765625	22168.05078125	20151.4765625	19067.8125	21131.994140625	19675.337890625	22209.0859375	21143.513671875	22821.748046875	22693.673828125
1800	2100	20728.2734375	20327.421875	15984.451171875	18754.0625	15265.1533203125	21329.6640625	23340.90625	16791.76171875	17480.787109375	18859.01953125	13032.115234375	17532.880859375	20175.1640625	15268.609375	20757.662109375	20518.517578125	16110.8984375	19294.322265625	16104.43359375	20138.556640625	21567.8203125	17663.01953125	18234.953125	18946.41796875	20089.052734375	13883.009765625	5178.88671875	11061.259765625	16067.974609375	20189.2421875	13822.515625	11003.908203125	21028.69921875	18855.931640625	18588.982421875	21059.822265625	17231.525390625	21223.025390625	19061.2421875	20097.6015625	19728.166015625	18278.46484375	20611.447265625	22169.333984375	20147.068359375	19778.3828125	18742.205078125	16942.177734375	19858.212890625	18942.802734375	19397.23046875	22416.775390625	17542.462890625	19432.677734375	18192.59375	20289.56640625	19586.9453125	20468.201171875	18538.56640625	18146.4765625	19679.79296875	18998.744140625	19733.806640625	19221.404296875	21213.7578125	20922.875	20735.0390625	19415.865234375	18378.837890625	20188.330078125	16233.3203125	20869.1953125	19191.8359375	20208.46875	19720.912109375	19328.2421875	20528.060546875	21661.591796875	19969.349609375	19851.26953125	18737.90234375	16454.744140625	19456.92578125	19825.396484375	19726.818359375	21722.9921875	17652.896484375	19818.802734375	18218.537109375	20025.33203125	19740.935546875	20543.228515625	18391.134765625	17628.640625	19449.748046875	18383.50390625	20939.345703125	19811.041015625	21503.037109375	21057.263671875
2100	2400	19529.578125	18494.291015625	14223.9755859375	16404.6171875	13809.818359375	18780.65234375	20264.423828125	15097.3232421875	15623.3369140625	15587.6669921875	12102.4853515625	16124.69921875	17655.7109375	14455.38671875	19605.6953125	18694.55859375	14467.48828125	17458.38671875	14240.818359375	18089.80078125	19751.4921875	16005.6884765625	16152.3720703125	15344.31640625	17785.619140625	12765.96484375	5057.57275390625	10860.400390625	14236.828125	18079.595703125	12938.7333984375	10968.404296875	19864.15234375	17092.658203125	17041.2109375	19869.470703125	16494.150390625	19955.146484375	17600.2421875	18911.220703125	18766.537109375	17156.390625	19460.51953125	20713.1953125	18636.591796875	18275.759765625	17569.3828125	15451.833984375	18039.08203125	17686.056640625	17968.220703125	21099.83984375	16203.2314453125	17913.63671875	16837.138671875	18629.615234375	17825.8203125	19088.634765625	16966.2109375	16949.9296875	18279.677734375	17324.244140625	19016.986328125	17385.189453125	18813.25	19324.310546875	19165.60546875	17416.244140625	17086.04296875	18770.005859375	15252.66015625	19669.521484375	18158.009765625	18743.14453125	18919.44921875	18064.359375	19171.57421875	20349.134765625	18528.828125	18525.30078125	17933.787109375	15500.05078125	18262.732421875	18417.3203125	18191.3125	20079.607421875	16362.1083984375	18248.51171875	16703.669921875	18402.658203125	17967.3046875	19105.87109375	17046.255859375	16499.91796875	18461.59765625	17004.462890625	19148.142578125	18151.533203125	19840.720703125	19467.130859375
2400	2700	18543.1484375	16778.60546875	13207.650390625	14918.05859375	12759.5771484375	17541.5234375	18134.12109375	13614.1123046875	14628.037109375	14608.2275390625	11612.1337890625	14269.1015625	16663.44921875	13104.470703125	18532.072265625	16784.076171875	13357.9716796875	15481.4677734375	13139.5703125	16526.76953125	17885.435546875	14596.126953125	14751.013671875	14521.8603515625	16082.6884765625	11881.8876953125	4903.27099609375	10740.603515625	12782.0205078125	16735.6484375	12325.5302734375	10701.8154296875	18622.001953125	16787.419921875	16164.2216796875	18486.009765625	15012.416015625	18860.515625	16546.705078125	18080.138671875	17992.494140625	16068.4375	18420.216796875	19792.685546875	17599.158203125	17280.203125	16395.162109375	14404.533203125	17632.3046875	17022.29296875	17575.3125	19605.767578125	15754.517578125	17279.912109375	15828.2978515625	17728.6875	16616.01171875	18074.603515625	16064.619140625	15690.8505859375	17144.6328125	16351.546875	16930.009765625	16902.05859375	18982.654296875	18158.208984375	18289.640625	16711.54296875	15894.5654296875	17758.814453125	13716.1845703125	18510.43359375	16697.828125	18000.12109375	17526.478515625	16986.685546875	17907.177734375	19235.625	17466.17578125	17273.234375	16541.076171875	14686.59765625	17266.296875	17571.486328125	17455.837890625	19270.53515625	15324.3115234375	17470.775390625	15812.044921875	17299.431640625	17181.4765625	18057.869140625	15865.7685546875	15298.828125	17001.05078125	15749.369140625	18251.20703125	16867.056640625	18650.091796875	18142.3671875
