frame_start	frame_end	Left-Cerebral-White-Matter	Left-Cerebellum-White-Matter	Left-Cerebellum-Cortex	Left-Thalamus	Left-Caudate	Left-Putamen	Left-Pallidum	Brain-Stem	Left-Hippocampus	Left-Amygdala	CSF	Left-Accumbens-area	Left-VentralDC	Left-choroid-plexus	Right-Cerebral-White-Matter	Right-Cerebellum-White-Matter	Right-Cerebellum-Cortex	Right-Thalamus	Right-Caudate	Right-Putamen	Right-Pallidum	Right-Hippocampus	Right-Amygdala	Right-Accumbens-area	Right-VentralDC	Right-choroid-plexus	AirCavity	Skull	Vermis	Pons	CSF-ExtraCerebral	Head-ExtraCerebral	ctx-lh-bankssts	ctx-lh-caudalanteriorcingulate	ctx-lh-caudalmiddlefrontal	ctx-lh-cuneus	ctx-lh-entorhinal	ctx-lh-fusiform	ctx-lh-inferiorparietal	ctx-lh-inferiortemporal	ctx-lh-isthmuscingulate	ctx-lh-lateraloccipital	ctx-lh-lateralorbitofrontal	ctx-lh-lingual	ctx-lh-medialorbitofrontal	ctx-lh-middletemporal	ctx-lh-parahippocampal	ctx-lh-paracentral	ctx-lh-parsopercularis	ctx-lh-parsorbitalis	ctx-lh-parstriangularis	ctx-lh-pericalcarine	ctx-lh-postcentral	ctx-lh-posteriorcingulate	ctx-lh-precentral	ctx-lh-precuneus	ctx-lh-rostralanteriorcingulate	ctx-lh-rostralmiddlefrontal	ctx-lh-superiorfrontal	ctx-lh-superiorparietal	ctx-lh-superiortemporal	ctx-lh-supramarginal	ctx-lh-frontalpole	ctx-lh-temporalpole	ctx-lh-transversetemporal	ctx-lh-insula	ctx-rh-bankssts	ctx-rh-caudalanteriorcingulate	ctx-rh-caudalmiddlefrontal	ctx-rh-cuneus	ctx-rh-entorhinal	ctx-rh-fusiform	ctx-rh-inferiorparietal	ctx-rh-inferiortemporal	ctx-rh-isthmuscingulate	ctx-rh-lateraloccipital	ctx-rh-lateralorbitofrontal	ctx-rh-lingual	ctx-rh-medialorbitofrontal	ctx-rh-middletemporal	ctx-rh-parahippocampal	ctx-rh-paracentral	ctx-rh-parsopercularis	ctx-rh-parsorbitalis	ctx-rh-parstriangularis	ctx-rh-pericalcarine	ctx-rh-postcentral	ctx-rh-posteriorcingulate	ctx-rh-precentral	ctx-rh-precuneus	ctx-rh-rostralanteriorcingulate	ctx-rh-rostralmiddlefrontal	ctx-rh-superiorfrontal	ctx-rh-superiorparietal	ctx-rh-superiortemporal	ctx-rh-supramarginal	ctx-rh-frontalpole	ctx-rh-temporalpole	ctx-rh-transversetemporal	ctx-rh-insula
0	30	157.24024963378906	134.8572540283203	171.44203186035156	168.1079864501953	164.57078552246094	207.4380340576172	208.91282653808594	190.92408752441406	208.33741760253906	315.8456726074219	169.05587768554688	115.41311645507812	203.9608154296875	139.23046875	153.69546508789062	146.87127685546875	183.4334716796875	189.91452026367188	114.84313201904297	179.1566619873047	128.82272338867188	338.3989562988281	282.1147766113281	363.63458251953125	210.22476196289062	275.4835510253906	63.08742141723633	97.6633529663086	123.2889633178711	146.17752075195312	180.3726806640625	74.53079223632812	240.0738525390625	248.45309448242188	208.0881805419922	213.44520568847656	301.0369873046875	185.7432861328125	201.6265869140625	125.62261199951172	164.38348388671875	146.0507049560547	267.1969909667969	200.86729431152344	261.064697265625	175.04757690429688	219.1040496826172	155.9860076904297	255.44390869140625	202.53733825683594	198.9876708984375	151.01718139648438	196.3740692138672	239.49842834472656	211.4357452392578	203.2982940673828	317.58612060546875	211.1456298828125	181.5443572998047	158.7791290283203	205.54071044921875	180.689453125	141.39767456054688	298.7011413574219	312.4414367675781	335.60736083984375	208.2891387939453	341.5918273925781	152.06593322753906	234.32554626464844	178.77301025390625	190.7487030029297	157.94639587402344	186.42552185058594	234.41065979003906	122.9051742553711	238.09715270996094	218.87625122070312	202.12542724609375	153.7507781982422	294.9486999511719	260.2296447753906	243.33460998535156	130.75637817382812	209.31370544433594	263.3293151855469	203.76063537597656	158.5684356689453	164.514404296875	206.6911163330078	227.21426391601562	167.92465209960938	209.76084899902344	113.31685638427734	230.14892578125	208.99710083007812	157.88082885742188	224.03514099121094	493.1478271484375	366.9560852050781
30	60	3957.646484375	4540.49658203125	5585.265625	5563.01708984375	4833.650390625	6005.21044921875	4828.37353515625	4310.23193359375	4940.86181640625	4085.212158203125	3174.27978515625	5665.22265625	5145.91796875	4385.3505859375	3831.0478515625	4368.91796875	5659.78857421875	5874.39208984375	4515.62060546875	5715.3017578125	4532.15234375	4966.80419921875	4151.0810546875	5272.98681640625	5096.8291015625	3834.864013671875	937.2616577148438	1509.4490966796875	5376.40966796875	4906.98046875	4624.6611328125	1284.2308349609375	5498.00341796875	5474.7109375	5725.65576171875	7072.19482421875	4827.134765625	4970.7412109375	5168.93701171875	5014.505859375	6520.46044921875	5192.1103515625	5944.09814453125	6230.66015625	5795.52392578125	5212.32373046875	5457.5634765625	5734.70263671875	6197.95458984375	6268.5234375	6047.16455078125	7280.1923828125	5397.42919921875	6132.81494140625	5868.6376953125	6249.82861328125	5610.91552734375	6006.71044921875	5845.2509765625	5159.17431640625	5328.8828125	5758.53564453125	6265.8037109375	3999.856201171875	7421.2529296875	6257.2880859375	5688.5244140625	6316.52392578125	6208.38427734375	6342.48974609375	4679.9501953125	4932.63916015625	5113.7685546875	4966.544921875	6265.34326171875	5081.15185546875	6020.2021484375	6075.55517578125	6356.77880859375	5141.71044921875	5060.44677734375	5826.7197265625	6325.9404296875	5559.56298828125	6197.93115234375	6374.68212890625	5240.6962890625	5821.41845703125	5509.5	6029.25146484375	6867.9443359375	5980.1552734375	5836.87841796875	4947.68359375	5588.4697265625	5595.310546875	6216.3798828125	3661.486572265625	8135.60546875	6341.27197265625
60	90	11407.6484375	13030.3623046875	16159.2275390625	16803.826171875	14539.009765625	16978.478515625	12985.7373046875	11482.1640625	12509.7490234375	12156.9501953125	9068.087890625	15939.615234375	13641.4599609375	12332.98046875	11182.724609375	12047.5234375	15975.2548828125	16339.0830078125	13601.705078125	16386.783203125	12976.2236328125	11845.115234375	11813.1318359375	16390.8515625	12905.1435546875	11593.0537109375	2299.211181640625	3884.6923828125	15820.83984375	13396.033203125	12015.0673828125	3463.003173828125	14697.953125	14516.6650390625	17059.330078125	19394.443359375	12380.0595703125	14669.2236328125	14966.130859375	14119.0537109375	17702.458984375	15004.3330078125	16473.20703125	17346.341796875	15768.150390625	14402.2861328125	14034.8271484375	15291.6435546875	16866.515625	16254.6923828125	16303.7216796875	20833.2890625	15640.1767578125	17527.6640625	16625.587890625	17632.451171875	14570.4677734375	17508.521484375	16250.2421875	14734.04296875	14056.84375	15962.2451171875	16250.6337890625	12745.8671875	19597.41796875	15522.3310546875	14882.9482421875	16994.47265625	17211.91796875	18318.251953125	13277.31640625	13158.0771484375	14800.7109375	13979.9423828125	17107.046875	14971.8779296875	17003.615234375	16654.85546875	16339.521484375	14325.974609375	12480.5498046875	15538.30078125	17783.45703125	16472.787109375	16272.19140625	18208.666015625	14875.51953125	18017.71484375	16279.166015625	16907.443359375	17443.435546875	17464.05078125	16418.318359375	13660.478515625	14432.322265625	15424.779296875	16508.302734375	11044.09375	18657.94140625	15997.4375
90	120	19179.095703125	21816.486328125	27483.48828125	27559.416015625	24591.251953125	29601.052734375	22044.951171875	19889.537109375	21935.953125	19619.3125	15040.1015625	27949.609375	22526.51953125	18636.056640625	19018.248046875	21667.08984375	27746.25390625	28011.416015625	24346.50390625	28728.654296875	22507.927734375	20663.326171875	20947.759765625	23954.08203125	20590.650390625	17893.419921875	3811.4599609375	6572.12158203125	26768.802734375	21903.693359375	19546.947265625	5798.5576171875	25818.9609375	25201.7109375	27981.5625	32298.21875	21385.47265625	24649.0703125	24648.4609375	24274.998046875	28476.130859375	25678.48828125	27964.509765625	28719.37890625	26679.27734375	24092.859375	23259.787109375	25776.126953125	28691.5078125	28466.541015625	28368.46484375	33973.2734375	26245.11328125	28139.876953125	27322.994140625	30065.263671875	25286.03125	29408.63671875	27134.078125	24018.763671875	24100.0546875	26402.830078125	28841.92578125	19002.6796875	33047.05078125	26575.94140625	26225.19140625	27342.5234375	29895.880859375	30448.18359375	22830.4140625	23103.345703125	25080.66015625	24907.71484375	28987.294921875	25633.373046875	28141.283203125	26879.646484375	28040.927734375	24809.064453125	21193.474609375	25455.544921875	30196.845703125	29076.640625	27824.01171875	31133.140625	25355.654296875	29721.49609375	26951.53125	28644.73046875	28086.578125	29924.203125	27880.544921875	24066.7109375	24566.59375	26447.482421875	29974.365234375	17684.16796875	32027.169921875	25453.224609375
120	150	24945.23828125	28516.443359375	36207.82421875	35429.09765625	31498.98046875	38856.890625	28801.1484375	25058.943359375	26119.919921875	26572.099609375	19126.85546875	33301.63671875	28444.33984375	24939.677734375	24638.4921875	27546.013671875	36078.91796875	35923.66015625	32915.0390625	37711.93359375	29005.57421875	25043.33203125	25637.90234375	33144.91796875	27039.931640625	24026.197265625	4667.3740234375	8122.3583984375	35101.640625	29309.45703125	24188.740234375	7279.93017578125	34075.5078125	33159.03515625	36651.2109375	41735.59765625	26542.884765625	31854.87109375	32906.77734375	31440.67578125	35252.95703125	32981.3359375	34360.15234375	35914.8203125	32790.953125	32007.806640625	30965.951171875	33503.74609375	36881.52734375	36085.73828125	35966.5234375	44512.0	33933.546875	38531.46875	35568.75390625	38090.8828125	31580.78125	38390.8125	35420.50390625	30970.751953125	31055.5	34750.828125	36419.9921875	24609.53515625	39283.98828125	33248.66015625	34904.6171875	35312.390625	37601.84765625	38682.25390625	27439.6328125	29896.177734375	32932.58984375	31876.283203125	37253.46875	32942.93359375	35387.51953125	34790.76171875	35224.82421875	32277.501953125	28363.53125	34504.05859375	36976.578125	37027.359375	34891.62109375	39975.078125	31580.654296875	39094.64453125	34961.4765625	36524.13671875	35661.87109375	38643.95703125	35394.05859375	31176.87890625	30372.3515625	34212.32421875	36454.26171875	22775.017578125	40746.28515625	31454.634765625
150	180	26381.0546875	30053.615234375	38132.61328125	37560.89453125	33503.421875	40993.58984375	31247.787109375	25959.107421875	28327.095703125	26031.734375	20436.70703125	35682.46484375	30396.7578125	24717.94140625	26200.23828125	29212.841796875	37407.90625	38166.97265625	33360.75	40036.09765625	31952.146484375	27158.169921875	23893.306640625	35480.8359375	29104.064453125	25284.31640625	4710.4619140625	8301.8759765625	36578.4453125	30029.5546875	24659.4453125	7725.6708984375	34128.81640625	34535.06640625	38669.15625	42821.91015625	26861.154296875	34397.21484375	34855.08984375	33139.02734375	37075.55859375	34454.89453125	35714.73046875	38441.9453125	35124.33984375	34128.51171875	31114.1875	36831.16015625	37681.25	38144.5390625	37908.72265625	44717.09375	35617.2890625	39821.4765625	36643.12109375	39869.93359375	33112.90234375	40247.765625	37014.421875	33345.65625	32764.220703125	36300.734375	37478.52734375	26090.65234375	41246.8828125	33420.92578125	37697.171875	38141.57421875	39858.0859375	38930.921875	25557.783203125	31234.3828125	35407.671875	33581.22265625	36219.671875	35495.41796875	36758.58984375	35672.96875	37495.41015625	34100.0546875	26658.626953125	35781.04296875	40081.1171875	39231.375	37446.81640625	41874.2109375	34194.30078125	40801.99609375	37105.40625	38995.0625	35000.22265625	40733.15625	37290.640625	32930.58984375	31744.197265625	36469.70703125	38902.96484375	22371.6015625	42036.37890625	33424.45703125
180	240	26918.994140625	30685.8046875	38439.58984375	39336.140625	34196.99609375	41138.87109375	32269.5078125	26197.48828125	28650.7890625	26698.236328125	20106.73828125	38220.71875	30043.087890625	23533.7890625	26806.08203125	29347.70703125	37707.80859375	38322.45703125	34067.13671875	41542.86328125	31719.720703125	26695.994140625	25957.931640625	36811.07421875	29262.87890625	23488.740234375	4650.162109375	8574.6494140625	37205.81640625	30705.64453125	24168.9609375	7930.38330078125	35237.03515625	34430.84765625	38718.19921875	42873.62890625	26130.26171875	34664.64453125	35165.76953125	33267.44140625	36608.03125	34953.59765625	36144.00390625	37758.71875	36203.34375	33586.48046875	32430.748046875	35185.01171875	38633.61328125	36892.015625	38303.71484375	44295.81640625	36145.33203125	39010.69921875	37378.71875	40634.66796875	33934.73046875	39609.06640625	36676.22265625	33630.046875	33038.8828125	37049.796875	36735.0390625	26743.818359375	41083.19140625	33577.953125	37147.671875	36069.77734375	39642.6953125	38599.26171875	26270.078125	32046.23828125	35091.7890625	34103.26953125	36118.82421875	35189.3671875	37199.77734375	36221.62890625	37558.88671875	34161.0234375	28061.27734375	36235.0625	40313.44140625	38435.98828125	37052.80859375	41420.5625	34011.02734375	41103.43359375	36741.45703125	38403.63671875	36695.42578125	40994.9453125	37335.1953125	32987.47265625	32277.0234375	36118.33203125	39051.89453125	22753.44140625	42619.48828125	33700.41015625
240	300	26058.77734375	29986.08984375	37064.25	37828.68359375	32723.609375	41193.65625	31820.666015625	25516.521484375	26770.34765625	25614.646484375	19003.654296875	37512.78125	28731.1484375	21439.34765625	25830.76953125	28953.361328125	36331.41796875	37695.2578125	33731.44921875	40331.453125	31964.40234375	25766.75390625	25726.560546875	34018.83984375	28243.9296875	22437.498046875	4445.4140625	8486.1591796875	35181.4296875	29439.681640625	22801.53125	8030.24072265625	35730.015625	33186.40625	36495.48828125	39603.69921875	25265.236328125	33321.29296875	33179.7265625	32653.986328125	33566.38671875	32975.8125	34757.39453125	35742.828125	34150.8828125	32929.08984375	30878.4453125	35176.44921875	36477.31640625	35406.58984375	36147.6015625	40368.62890625	34069.78125	38450.16796875	35494.76953125	37555.984375	30957.572265625	37861.73046875	35467.2421875	32535.400390625	31731.662109375	35214.9921875	33880.1484375	26129.91796875	38929.8046875	32810.46875	34391.8203125	35089.19140625	37123.3359375	35879.8203125	25271.16796875	31175.13671875	33647.26953125	33034.94140625	34797.34375	33375.13671875	36022.14453125	33921.0703125	35750.5546875	32783.953125	28336.41015625	33413.73046875	37465.1640625	36223.9921875	35259.9140625	38270.5703125	31987.7734375	38251.31640625	34688.3984375	36129.36328125	35818.13671875	38478.3125	35424.984375	31832.91796875	31147.01171875	34436.69921875	37403.3828125	21554.84375	37163.34765625	31959.10546875
300	360	25146.841796875	28510.853515625	34666.46484375	36167.07421875	32402.15625	39829.234375	32218.62890625	24037.20703125	25283.576171875	26117.462890625	18069.935546875	35598.7421875	27926.994140625	20333.681640625	25023.734375	27108.35546875	34268.53515625	35021.15625	31180.943359375	37707.0859375	31694.498046875	24766.587890625	25059.623046875	32190.2109375	27147.640625	20480.525390625	4251.2158203125	8220.474609375	32913.55078125	27215.16796875	21345.55859375	7943.65380859375	32475.453125	32242.119140625	34653.8984375	36874.00390625	25256.443359375	31528.98046875	31496.46875	30476.748046875	32434.791015625	31192.173828125	31664.833984375	33343.50390625	33061.01171875	31057.458984375	29421.83203125	31808.193359375	34737.9140625	33718.8515625	34447.87890625	37964.67578125	32224.88671875	35422.578125	33701.32421875	35668.05078125	29871.009765625	35795.55859375	33233.05859375	29808.744140625	30544.1171875	32995.8046875	34249.2421875	25079.27734375	35464.1875	31726.75390625	32827.078125	33189.0546875	34775.3515625	33030.41796875	23656.890625	29891.267578125	31690.97265625	31201.052734375	32684.80078125	31585.427734375	34001.01171875	32237.51171875	34160.8203125	31322.66796875	26467.884765625	32927.26953125	35748.08984375	34479.78125	33357.80859375	35016.34375	30410.287109375	35217.37890625	32629.03125	34028.8671875	34648.54296875	36411.4375	33086.36328125	30292.50390625	29712.85546875	32272.154296875	34486.859375	21458.97265625	35408.04296875	30533.833984375
360	480	23534.091796875	26449.5	31373.708984375	33453.7890625	30080.341796875	36157.05078125	29562.955078125	22943.5078125	24437.357421875	24185.490234375	16552.125	32577.880859375	26445.6484375	16552.73046875	23374.568359375	25995.7734375	30767.373046875	33442.80078125	29096.86328125	35378.53515625	30554.76953125	23329.76171875	24485.650390625	31166.671875	25591.525390625	18177.39453125	3999.04248046875	7768.5234375	29844.751953125	26214.212890625	19193.076171875	7749.40185546875	29404.720703125	28684.9765625	30722.98828125	32268.958984375	23220.64453125	28993.72265625	28601.08203125	27892.08203125	28361.97265625	27678.9140625	29248.966796875	29464.767578125	30415.013671875	28722.69921875	27604.53125	29643.923828125	30947.4375	29630.298828125	30985.546875	32362.5625	28928.455078125	31957.0390625	30222.806640625	31622.9375	28338.81640625	32205.439453125	30341.263671875	27441.91796875	28074.4765625	29446.580078125	29206.7578125	22645.62890625	31728.7421875	28922.841796875	31226.5234375	30082.818359375	31228.408203125	29548.5859375	21901.841796875	27479.875	28663.859375	29124.349609375	28555.857421875	28440.48046875	31077.53515625	28816.26953125	31555.546875	28023.955078125	24521.072265625	29104.119140625	31659.59375	31115.888671875	29716.01171875	31140.6953125	27472.310546875	32930.44921875	29578.853515625	30496.3828125	30877.712890625	32770.83984375	29970.03125	26642.734375	27519.779296875	28757.19140625	31094.89453125	20173.068359375	32782.875	28297.91796875
480	600	21601.419921875	24484.806640625	27403.560546875	30186.734375	26484.24609375	32444.265625	27684.591796875	20939.916015625	22580.181640625	22743.701171875	15141.8076171875	28324.900390625	23873.8125	15000.05078125	21404.77734375	23666.734375	26901.830078125	29925.53125	25407.03515625	31381.8203125	27443.953125	21226.822265625	23520.72265625	27345.921875	23664.5625	15855.486328125	3665.011962890625	7349.7939453125	26027.923828125	24126.853515625	16698.978515625	7474.0947265625	26330.19140625	27071.583984375	27162.3828125	27629.9921875	21003.279296875	25955.7265625	25102.875	25231.67578125	26264.37109375	24115.50390625	25432.91796875	25739.916015625	26862.587890625	25577.76953125	25074.85546875	25557.044921875	27072.47265625	25111.1171875	27209.94140625	27933.529296875	25214.140625	28050.853515625	26177.486328125	27022.3828125	25113.97265625	28131.470703125	26578.873046875	23830.658203125	25282.6640625	26182.06640625	25599.130859375	21055.23828125	28508.966796875	26220.986328125	27784.2734375	26996.15234375	27454.892578125	25241.685546875	20763.83203125	24612.9453125	24954.849609375	26006.068359375	24658.38671875	24673.3828125	27027.478515625	25021.486328125	27680.37890625	25088.705078125	21724.669921875	25275.708984375	27832.544921875	26592.9375	25450.7265625	26098.783203125	23626.87109375	28090.25	25837.619140625	26152.94921875	27216.076171875	28296.1875	26156.267578125	23362.162109375	24382.318359375	25248.681640625	27237.818359375	20059.2578125	27677.41015625	25662.572265625
600	900	19493.109375	21685.505859375	22431.548828125	26325.919921875	22162.5390625	27704.71875	25466.974609375	18978.59375	20033.955078125	21279.865234375	13590.3701171875	24096.533203125	21987.888671875	14647.6064453125	19311.58203125	21110.84375	22165.56640625	26323.271484375	21967.208984375	26842.517578125	25904.599609375	19457.720703125	21163.1953125	23298.908203125	21799.08984375	14749.818359375	3286.061767578125	6956.0791015625	21084.1875	21595.427734375	14009.9013671875	7185.64208984375	22268.181640625	21969.767578125	22153.287109375	22434.216796875	19021.359375	22341.3125	21135.74609375	21599.0703125	21863.990234375	20068.298828125	21325.73046875	21357.873046875	23031.365234375	21958.896484375	21612.1640625	21641.64453125	22659.99609375	20585.359375	22704.091796875	22689.5390625	21408.345703125	23243.9453125	22289.46875	22586.40625	21854.28125	23665.791015625	22308.8359375	20024.4296875	21743.81640625	21881.60546875	21662.4375	18624.42578125	23845.98828125	22591.9453125	23013.052734375	22043.265625	22794.17578125	20431.451171875	18397.896484375	21425.390625	21002.576171875	22342.68359375	20747.857421875	20577.3203125	22716.11328125	20611.833984375	23615.94921875	21317.08203125	19657.142578125	21306.2421875	23318.001953125	21945.240234375	21451.595703125	21184.712890625	19757.302734375	23548.41796875	21371.037109375	21730.615234375	23079.1875	23524.849609375	21963.76953125	19468.47265625	21193.009765625	21025.666015625	23465.423828125	18063.125	23193.19140625	22056.552734375
900	1200	17696.513671875	19079.0546875	17923.9453125	21912.412109375	18201.171875	22532.95703125	21639.255859375	16808.791015625	17291.501953125	18138.109375	11938.1767578125	20093.439453125	19198.322265625	12186.35546875	17439.982421875	18678.087890625	17609.912109375	21999.83203125	17239.947265625	22648.1796875	22668.705078125	16745.8359375	18108.787109375	18932.404296875	18928.42578125	13103.35546875	2982.801513671875	6714.93017578125	16887.439453125	18961.0703125	11729.744140625	7116.857421875	19084.98828125	19158.060546875	18530.6796875	18908.40625	16713.330078125	19019.298828125	17792.85546875	18432.755859375	18129.15234375	16882.587890625	18228.49609375	17725.427734375	19319.634765625	18435.17578125	18206.990234375	18494.015625	18951.90234375	17658.921875	19130.4296875	19291.486328125	17627.63671875	19687.970703125	18694.48046875	18862.6328125	19210.193359375	19719.037109375	18762.318359375	16810.138671875	18490.5703125	18375.435546875	18043.134765625	16823.634765625	19812.494140625	19556.013671875	19157.31640625	18489.32421875	18956.23828125	17107.154296875	16223.126953125	18173.890625	17476.322265625	18884.556640625	17614.443359375	17315.208984375	19406.79296875	16990.736328125	19788.115234375	17684.66015625	16609.576171875	17947.1953125	19289.421875	18160.73046875	17990.8046875	17706.005859375	16795.8203125	19553.630859375	18092.75390625	18248.521484375	19892.453125	19942.52734375	18140.568359375	16265.279296875	17978.142578125	17774.935546875	18645.3671875	16283.978515625	18946.4921875	19007.2734375
1200	1500	16787.32421875	17455.865234375	15365.396484375	19176.5625	15733.25390625	19832.19140625	20491.4921875	15200.3115234375	15600.8466796875	16458.41015625	11006.62890625	16739.55078125	18163.9296875	11221.3369140625	16555.62890625	17131.109375	15107.634765625	19034.4296875	15528.6220703125	19862.869140625	20435.37109375	15203.2080078125	16644.7578125	17086.34765625	17539.927734375	12671.376953125	2944.0068359375	6607.74072265625	14334.4599609375	17560.60546875	10534.185546875	7194.82421875	17270.189453125	16660.0546875	16828.0078125	17307.826171875	15029.0390625	17207.453125	15979.1337890625	16891.03515625	16954.7421875	15253.728515625	16324.099609375	16398.767578125	17506.330078125	16477.623046875	16187.1396484375	16511.189453125	17384.267578125	16745.3046875	17481.541015625	17447.458984375	16272.712890625	17589.669921875	16852.67578125	16945.4765625	16625.279296875	17803.52734375	16704.599609375	15369.736328125	16614.4609375	16630.37890625	16135.94140625	15415.6435546875	18025.212890625	17672.64453125	17206.962890625	16684.53125	17115.212890625	15452.1025390625	14489.5166015625	16211.587890625	15964.08984375	16832.7421875	16076.3232421875	15836.591796875	16908.701171875	15413.5322265625	17743.4296875	15884.58203125	16013.1318359375	15862.5947265625	17710.62890625	16892.669921875	16409.712890625	16531.07421875	15271.2978515625	17647.033203125	16413.095703125	16490.3125	17438.025390625	17848.87890625	16395.134765625	14729.8671875	16274.8876953125	15954.107421875	17336.267578125	14424.6650390625	16934.5546875	17141.828125
1500	1800	16035.8359375	16318.07421875	13818.6484375	17183.263671875	14599.640625	17888.681640625	19346.236328125	13749.2021484375	14183.494140625	14931.328125	10475.3056640625	15655.2646484375	16856.193359375	10991.5859375	15885.1748046875	16070.3212890625	13521.0224609375	17042.35546875	14024.63671875	17679.275390625	18785.263671875	13988.919921875	14297.3154296875	14890.759765625	15999.0	11541.5673828125	2835.899658203125	6584.71533203125	12661.1435546875	16035.158203125	9757.1123046875	7270.6572265625	16466.06640625	15762.111328125	15630.8681640625	15800.2353515625	13873.701171875	16185.45703125	14934.7734375	15544.017578125	15374.41796875	14335.0712890625	15432.1982421875	15102.2822265625	15716.1884765625	15374.4912109375	15486.59375	15273.9990234375	16018.63671875	15990.6591796875	16286.208984375	16419.12109375	14876.5341796875	16452.310546875	15799.1455078125	15885.7236328125	15432.8671875	16583.712890625	15396.7578125	14006.2216796875	15396.244140625	15518.9521484375	14800.443359375	14475.982421875	16699.103515625	16363.7822265625	15925.4169921875	15813.4658203125	15939.4306640625	14351.4169921875	13526.572265625	15191.89453125	14627.353515625	15785.8701171875	14993.0419921875	14770.919921875	16094.634765625	14312.74609375	16412.28125	14596.611328125	14378.607421875	14892.1669921875	16127.1298828125	15278.34375	14950.720703125	15716.517578125	14011.7509765625	16544.314453125	15199.0849609375	15031.7978515625	16114.611328125	16592.705078125	15178.4833984375	13743.544921875	15080.6796875	14958.7529296875	16178.8056640625	13382.2939453125	15427.734375	15508.544921875
1800	2100	15424.5791015625	15512.2197265625	12462.2978515625	15541.3876953125	13532.330078125	16328.5751953125	17148.37109375	12912.4130859375	13511.1923828125	13656.3955078125	9857.41796875	14422.1162109375	15029.5283203125	10779.4306640625	15265.53515625	15146.341796875	12154.5439453125	15372.5341796875	12720.994140625	15870.8310546875	17288.548828125	12893.48046875	13084.1875	13753.7890625	15036.0654296875	11423.017578125	2854.09814453125	6552.39599609375	11644.2587890625	15055.55078125	9233.0205078125	7296.7294921875	15596.01953125	14740.7939453125	14418.2431640625	14999.7060546875	13399.0439453125	15142.03515625	14012.9169921875	14888.1728515625	14980.81640625	13635.0234375	14431.291015625	14418.9453125	15176.041015625	14414.560546875	13946.7421875	14162.05859375	15225.6318359375	14803.3779296875	15337.6357421875	16156.4140625	14236.5166015625	15651.703125	14566.28125	14718.19921875	14511.3056640625	15647.021484375	14457.5244140625	13153.9775390625	14608.724609375	14673.3818359375	14106.2548828125	13492.2392578125	15796.5908203125	15381.869140625	15335.2744140625	14677.56640625	14917.267578125	13606.234375	12622.607421875	14148.892578125	13789.109375	14835.76953125	13896.4287109375	13880.560546875	14786.986328125	13602.3818359375	15454.5927734375	13784.5146484375	13232.3994140625	13977.9345703125	15251.8720703125	14584.072265625	14163.576171875	14703.5869140625	13132.7236328125	15516.7890625	14346.140625	14175.853515625	14911.751953125	15624.9609375	14263.3037109375	12715.482421875	14114.1357421875	13851.4853515625	15578.0439453125	12435.9345703125	14583.4873046875	14677.0869140625
2100	2400	14799.08203125	14449.853515625	11357.4228515625	14395.158203125	12634.13671875	15462.8203125	15968.3544921875	12210.947265625	12461.263671875	13427.4580078125	9382.5322265625	13313.767578125	13811.4052734375	9830.533203125	14572.2431640625	13960.234375	11058.8173828125	14351.17578125	12001.728515625	14858.388671875	15510.7119140625	12152.1494140625	12394.2822265625	12158.451171875	13860.6318359375	9954.876953125	2758.97021484375	6533.57421875	10553.7724609375	14525.787109375	8868.671875	7338.6083984375	14131.7802734375	13737.43359375	14043.173828125	13978.8857421875	12824.39453125	14512.3203125	13092.6455078125	14081.609375	14119.8681640625	13120.9326171875	13195.3974609375	13850.9189453125	13879.6650390625	13462.40234375	13239.3984375	13161.66015625	14170.8291015625	13265.7294921875	14506.4619140625	14966.96875	13151.2021484375	14190.5986328125	13801.6357421875	13768.0751953125	13969.3798828125	14761.2998046875	13547.0712890625	12323.5185546875	13726.3720703125	13671.9306640625	12910.6259765625	12431.9296875	14917.572265625	13957.140625	14518.82421875	14081.2587890625	13805.41796875	12644.8701171875	12464.3408203125	13253.1279296875	12794.419921875	13820.8173828125	13106.57421875	13298.7919921875	13737.845703125	13174.2412109375	14303.4267578125	13062.2138671875	12450.626953125	13077.4140625	14417.9658203125	13067.9853515625	13417.1337890625	13931.728515625	12238.70703125	14400.953125	13268.578125	13500.4423828125	14515.0302734375	14893.060546875	13381.421875	11832.990234375	13448.4736328125	13246.521484375	13421.490234375	12371.4833984375	13776.076171875	13702.1572265625
2400	2700	14183.505859375	13598.390625	10443.4453125	13146.9775390625	12072.908203125	13703.724609375	14470.400390625	11340.17578125	11469.8232421875	12378.126953125	8953.2529296875	11389.06640625	12926.2255859375	9418.2568359375	14037.5537109375	13602.953125	10193.71875	12680.8994140625	11134.72265625	14186.119140625	15294.9873046875	11342.203125	11809.94140625	10370.666015625	12893.7265625	10157.69140625	2711.0859375	6506.07568359375	10022.55859375	13609.8583984375	8522.8115234375	7326.341796875	13558.4541015625	13409.7333984375	13191.8095703125	13195.6455078125	11308.8974609375	13638.6298828125	12715.427734375	13378.6201171875	13215.9130859375	12738.900390625	12508.546875	13188.537109375	13600.1513671875	12867.896484375	12352.287109375	12482.583984375	13605.3759765625	12167.8818359375	13798.2041015625	14692.3623046875	12381.25390625	13601.216796875	13032.4541015625	13242.8115234375	12640.3271484375	14346.7802734375	12859.4375	11689.2646484375	13121.5048828125	13044.369140625	12945.6435546875	11759.736328125	14268.02734375	13222.4560546875	13475.8779296875	12634.484375	13310.9560546875	12262.7705078125	11307.8466796875	12910.966796875	12463.146484375	13725.296875	12705.2509765625	12900.482421875	12978.32421875	12673.7236328125	13480.728515625	12409.0439453125	11994.1220703125	12268.984375	13718.595703125	12055.9990234375	13152.7763671875	13617.2431640625	11913.7958984375	13614.9462890625	12552.2138671875	12657.0869140625	13148.4033203125	14276.875	12711.2919921875	11380.6826171875	12742.4130859375	12402.5595703125	13123.3818359375	12191.1865234375	13549.2890625	12783.7021484375
