frame_start	frame_end	parasubiculum	HATA	fimbria	hippocampal_fissure	HP_tail	presubiculum-head	presubiculum-body	subiculum-head	subiculum-body	CA1-head	CA1-body	CA3-head	CA3-body	CA4-head	CA4-body	GC-ML-DG-head	GC-ML-DG-body	molecular_layer_HP-head	molecular_layer_HP-body	Lateral-nucleus	Basal-nucleus	Central-nucleus	Medial-nucleus	Cortical-nucleus	Accessory-Basal-nucleus	Corticoamygdaloid-transitio	Anterior-amygdaloid-area-AAA	Paralaminar-nucleus
0	30	640.67633	193.80013	281.27655	362.04557	371.5954	274.2829	414.3417	194.94724	366.3936	285.3203	315.52743	332.59193	383.96687	193.35107	510.09003	269.81126	472.68418	234.25802	404.69791	149.2547	352.38387	127.70456	137.3752	219.83613	306.0912	475.25273	1110.78402	366.33869
30	60	6175.22783	5094.26358	6189.33163	5198.89682	5085.06815	5158.83412	6097.8772	3867.41	5448.05069	4370.48903	3856.78089	5857.05205	4636.53613	5334.78171	5550.9466	5037.0576	5510.21606	4444.84204	5108.92287	3161.73844	4913.55207	3700.00333	3092.24552	3050.46788	4927.16278	5247.97486	7099.5479	4170.29554
60	90	12807.00859	11629.56272	11616.62426	12581.23148	11481.62972	13441.73438	14856.78229	11536.12955	11769.55709	10366.7201	9286.5555	13629.42187	10750.22656	14383.28401	11925.84852	13443.4876	12133.25707	11865.7762	11537.67226	11442.76507	11425.44181	9728.44088	9437.28179	10400.61986	11101.41593	12944.26289	20928.38512	10670.00218
90	120	18908.97132	19484.94278	23396.59879	20025.4507	22343.87284	21848.35492	24441.71337	19296.95427	21015.49776	18816.09868	16200.50482	22606.63314	20718.31086	20592.59775	21905.88602	20437.54242	21730.72011	19931.17535	20537.0431	19879.70723	23589.04332	18368.77578	16298.24501	16959.02993	20065.42124	19510.66488	25140.06516	24509.66875
120	150	22022.1197	22060.16406	27000.37021	25811.52395	27673.65921	26135.91862	25944.13026	25437.99518	26564.38937	21462.97995	24094.26831	28821.43221	25932.79059	26204.84365	26784.63654	24640.61983	26524.37041	24229.03936	26261.47438	26048.13884	26091.92942	25306.38527	25007.68598	23395.03736	25819.95507	22716.15878	27280.15903	22858.03876
150	180	24892.1079	21489.03998	33514.95372	28163.6532	28532.53372	29522.83027	26793.52461	28078.05525	29842.06408	24684.89372	24284.25516	27443.54743	28825.81413	28557.12574	30914.7965	27536.09371	30250.4684	27488.18204	28394.48515	25557.09261	24583.75852	24462.81845	23227.63672	22242.52726	24221.82358	20568.22153	26569.96567	22711.49833
180	240	22894.51112	23466.43612	28479.71091	27447.14709	28607.75035	27110.228	26730.43277	27885.60664	27889.80331	25274.13111	25284.48553	27031.70381	25919.03177	28042.05689	27979.34716	26663.6104	27782.9014	27510.17957	27144.88727	27616.36531	25682.14494	26066.42192	26572.69336	26105.85751	25430.75156	22680.09909	22780.20916	25894.10541
240	300	21848.66558	18897.4508	27282.67405	27386.45267	26665.11031	27359.44957	26574.56333	27398.15205	27804.82728	23782.25072	25174.4355	25705.72316	25141.98083	29466.69768	27101.72218	26500.03563	26894.85129	26617.7078	26531.01051	28834.97155	25855.18836	24588.87137	24985.13325	24592.53694	23830.0896	20525.74568	22167.80948	24224.37433
300	360	21799.30433	21014.84849	26370.83408	26310.87147	24553.34847	26371.97797	25025.25967	26157.49308	26757.75878	23155.78853	23696.74744	26154.72146	24132.43879	27316.73833	26483.83143	25534.69035	26284.87282	25448.85597	25213.74715	27119.77146	24784.30849	23529.2684	23883.38238	23295.96688	23848.33615	20457.76481	23976.14995	23856.76099
360	480	22619.81405	19537.10175	24347.62135	24369.11358	22704.46014	26155.45562	23148.44195	25634.94471	24277.76768	22430.46868	22226.44998	24003.89274	22895.21613	25466.51829	23943.40195	24302.87453	23764.55342	24652.02599	23471.54599	26086.12119	25348.75549	22895.54533	22245.63889	21778.21315	22628.664	19551.40028	23489.7091	23972.2012
480	600	18262.18828	18470.93727	23732.63889	22153.86862	20259.62293	22236.53467	22464.00268	23491.58061	23944.77506	20475.19198	19756.39981	20220.80263	20678.66552	22733.71314	22364.24085	21510.23772	22417.9083	21945.55031	21881.67476	25019.49037	24152.68896	23231.02939	24099.42839	22971.15319	22273.34774	19046.25665	22006.2967	21833.00522
600	900	16841.14768	16379.03417	20199.45668	20382.0149	18329.92735	20089.68677	19562.38159	21042.43203	21064.80696	18795.57785	19748.24071	19236.08505	19409.32648	20795.57108	20439.30101	19919.5525	20474.17034	20173.04933	20344.88883	22100.29018	21820.65179	20921.46566	20761.15799	20948.33212	20773.09064	17252.71892	19447.67969	20555.96211
900	1200	16142.41348	15085.60363	18314.1815	17793.50396	15730.51704	18279.72898	16721.09744	18274.89255	17852.66716	16771.46437	16427.87539	16006.09043	16741.34	17787.63937	17217.30009	17052.13744	17293.87262	17746.92759	16916.60027	19240.64871	18094.07423	18138.67451	18640.83507	19074.34001	17719.85795	15174.67469	15825.40332	16671.60647
1200	1500	13139.42708	13140.35241	16414.15987	15692.19096	14621.19388	15656.69875	14823.38362	16754.89379	16298.72701	14996.6853	15616.82257	15019.75196	15526.69111	15805.99309	15796.76772	15502.91865	15758.58587	15772.88344	15616.59277	17697.57625	16822.4895	15415.02621	15448.36892	16035.72537	15861.99047	13803.33374	16982.93149	15325.53365
1500	1800	12497.34096	13503.52085	14648.6877	14464.66643	13170.85966	15433.6574	13899.50604	15475.22771	15042.61074	13569.43117	14881.71932	13865.91789	13951.14592	14830.93368	14093.40459	14390.33593	14245.0138	14629.29779	14250.7072	15361.54506	13834.6009	14537.34034	15405.01421	16007.35318	13839.36128	12309.85411	13146.68611	13590.27188
1800	2100	11441.38509	12497.97718	14397.41756	13236.45045	12245.55451	13001.83589	12874.72328	13926.01972	14368.03514	12845.77412	14155.64631	11487.13277	13558.65291	12196.98272	13733.83358	12417.36252	13885.96923	12821.91618	13710.20051	14396.22014	12897.4021	12802.53775	14161.42014	13595.57948	11943.86765	11280.48828	12442.42504	12107.43502
2100	2400	10455.3186	11507.62684	12653.8441	12372.22893	12001.88065	12715.42095	12049.21472	13600.38071	12946.32563	12072.11842	12817.65948	11607.96888	12658.45028	11602.79477	12211.29134	11814.52446	12336.63569	12318.80381	12465.72666	13282.06917	12246.84226	12147.06416	12877.90809	13319.05078	11917.07812	10929.00745	10957.34982	11342.12492
2400	2700	9721.50761	12259.3389	12165.97959	11016.78326	11596.85604	10768.56209	10785.70837	11647.33395	12182.69761	11595.14526	12434.36865	10409.5838	11986.8618	10093.91415	11479.57051	10689.2585	11635.65593	11219.3951	11751.09271	12670.9056	11555.20877	11514.67612	12626.62305	12988.77683	11614.49201	10131.49355	9994.01998	11746.56258
2700	3000	9572.86402	8571.10438	11406.0759	11091.24055	11139.96007	10726.18116	11229.51004	12044.15669	11769.25859	10909.82319	12082.91493	10246.82272	11616.27111	10522.49837	11043.54312	10770.76842	11238.47155	11001.15691	11285.54397	12071.89008	10001.18493	9999.19132	10843.8252	10261.97631	8713.03475	8081.90206	9197.96652	10093.31018
3000	3300	8351.6303	9482.54893	11046.77876	9893.29026	9831.49867	9796.7104	10171.91968	11379.00028	11133.81965	9873.616	11048.7522	9611.5012	10377.64165	9792.04557	10122.09349	10054.71333	10250.21462	10034.35659	10388.28894	10204.87699	9109.92896	11484.98851	11869.03342	11038.89215	9430.74731	8489.75845	8109.90705	8703.9505
3300	3600	8479.59574	10093.40725	9691.76728	9900.79118	10326.65958	9574.82347	8968.70126	11215.66275	9783.34453	9914.43757	10013.21265	9768.88913	10021.19544	9891.23219	9664.27026	9921.50217	9606.5809	10073.30398	9588.38127	10905.91537	9736.40897	9830.61639	11020.77192	10580.97334	8955.915	8383.36277	9365.16211	9826.04064
3600	3900	7445.09552	8730.24864	10149.83973	9425.46889	9968.16373	9059.99866	9726.46201	10701.64574	10130.12843	8747.86103	10457.13015	8472.66436	10004.05678	8834.08995	9163.28726	8858.05766	9365.08664	8815.71605	9667.41277	10266.74689	9169.95009	10227.96156	11189.49957	10855.86808	9020.65346	8091.14649	9414.00496	8520.48538
3900	4200	7189.46863	8242.15356	9354.69582	8719.82655	7295.37433	8649.21844	8537.01755	9964.86095	9524.50266	8396.2549	10594.27466	7587.57496	9608.5974	8135.85865	9179.47673	8428.98276	9313.32932	8578.69557	9553.49715	8483.70098	7673.90919	7371.83774	8693.18452	10296.0442	7851.8319	7880.29611	10708.03227	6254.40043
4200	4500	6022.12534	7070.56005	9761.43956	9083.71418	8632.99949	8054.38402	8986.61787	9979.44859	11982.94204	7834.42807	10279.20125	8298.8983	9727.41444	8691.18179	9849.2326	8177.66768	9943.22873	8206.87918	9981.30645	9278.58266	6579.75279	8044.34384	10000.54921	9000.41311	7019.45526	6880.20898	6528.05161	6600.10027
4500	4800	7444.21423	10150.35223	8999.79595	7708.59408	7666.86055	8741.76654	8117.70204	7604.96823	8011.22236	7630.42358	9203.78109	9346.12933	8697.73057	7594.11571	7904.48056	8092.7917	7909.39075	7475.02249	8178.4651	8181.34794	5792.46244	7023.10627	7961.59625	8240.03866	6596.54268	6846.57915	5594.99876	7455.15011
4800	5100	6825.08792	7812.22586	8095.68195	6739.7624	8765.49435	6840.18911	7461.36261	6014.67901	8844.15497	6473.74678	7983.77251	7018.45295	8153.59362	6145.63564	8003.42675	6702.92353	8104.13865	5906.29052	7892.61426	8565.46645	6665.71845	7168.63757	8220.02599	8330.03681	5898.98548	5260.2761	7546.77832	8033.01868
5100	5400	5432.55737	8794.85246	8568.54945	6660.50602	8571.73896	6247.8557	8090.86031	6836.29612	9435.93776	6501.48925	8681.85071	6484.20072	8665.54215	6175.50625	8704.11527	6479.67517	8649.75629	6356.52315	8789.55536	7939.68361	5662.31486	9310.51921	8944.77507	9880.88774	7950.35703	7044.30626	6436.28123	5341.53853
