frame_start	frame_end	Left-AV	Left-CeM	Left-CL	Left-CM	Left-LD	Left-LGN	Left-LP	Left-L-Sg	Left-MDl	Left-MDm	Left-MGN	Left-MV(Re)	Left-Pf	Left-PuA	Left-PuI	Left-PuL	Left-PuM	Left-VA	Left-VAmc	Left-VLa	Left-VLp	Left-VM	Left-VPL	Right-AV	Right-CeM	Right-CL	Right-CM	Right-LD	Right-LGN	Right-LP	Right-L-Sg	Right-MDl	Right-MDm	Right-MGN	Right-MV(Re)	Right-Pf	Right-PuA	Right-PuI	Right-PuL	Right-PuM	Right-VA	Right-VAmc	Right-VLa	Right-VLp	Right-VM	Right-VPL
0	30	94.58489	81.9829	155.17561	169.46549	102.00563	271.7917	166.41607	191.01945	156.86356	153.70915	358.89847	94.95312	139.88243	130.13744	211.88109	89.0789	102.53789	74.76168	100.75309	229.37452	281.48326	229.28131	242.09794	179.72968	196.41793	210.61888	102.8074	104.60358	202.33021	159.98907	309.42074	140.46233	157.82584	253.20558	144.23336	157.64255	186.11581	333.71574	287.27311	204.01958	251.79591	206.28206	194.49092	125.98148	123.57819	192.67458
30	60	4697.77023	4596.64113	5481.18815	5772.235	4184.43286	7801.40121	6003.51186	4761.43461	7005.06803	6421.75345	6069.8248	5076.48735	3686.83929	7314.68876	5689.44783	6215.6897	5488.16713	4207.66526	4006.53695	4939.39758	5293.31015	4095.80352	5661.4718	5184.11	5108.91374	7665.39497	7030.22331	7091.7323	5169.01578	6809.06428	4791.617	7916.03443	7025.43488	6231.27266	5145.00239	5572.51925	6844.75049	4860.5031	5931.36332	4753.88867	5077.39736	5110.00033	6646.08357	6750.16361	4141.75716	5629.07007
60	90	17578.04791	14951.09742	18183.86637	21034.0352	15542.47538	13179.02171	16539.23466	14005.83834	23018.9967	20952.60998	16954.73248	12655.30244	15097.77821	20478.33212	15460.45803	17015.80503	16175.8404	13517.59837	12065.54167	14971.24788	17338.74758	10173.73398	15418.78403	16414.63184	16325.74213	18679.80984	18047.28652	17306.59134	12716.12084	19184.97309	15143.82172	19573.45678	18481.19382	16850.68768	14225.41426	14614.27987	20371.04395	15458.47561	15744.31648	14482.05102	15194.83392	15864.65723	14751.22506	17451.87555	11360.91406	16850.30879
90	120	26228.09538	29226.3368	29359.44938	30226.02088	24927.17341	27049.55249	28461.21774	25046.45418	37074.17363	33147.94338	29199.46296	26338.25215	27297.30083	35814.16876	24632.13122	30423.13034	26913.33411	22894.54172	31640.3151	23268.29267	25838.33329	18294.73438	26964.93317	26460.365	26024.66604	32506.59549	31924.28025	27827.07924	24028.79391	30642.16543	22603.22461	38609.74238	34367.45366	25021.28478	21447.98438	23664.88329	35375.84442	25742.65808	26133.45533	26526.59811	21335.16337	24061.62869	25251.67182	29290.27691	18820.39128	27568.30798
120	150	33925.77413	33613.66474	36387.09684	40550.50418	32223.09445	34123.91405	38547.61292	27213.71319	46554.63512	40066.96864	34788.30113	32080.63281	30236.28541	45659.11758	33401.2147	36123.17572	33297.04881	27801.90797	30918.73926	33721.36174	38025.97974	26505.27305	35218.22006	33752.08798	35513.7741	39690.59386	41458.19155	37667.6386	27869.11583	43474.55612	30913.71549	48575.61418	41514.7014	33607.94401	35727.9707	32561.7241	45726.11888	30560.84514	34422.38438	32464.54629	27205.65467	36199.9605	34573.08282	40478.63664	24726.52344	35381.29609
150	180	36348.85025	36971.36893	41708.17773	43409.56242	36364.26228	33631.02979	38669.71442	35669.05033	50998.02922	44653.47974	36026.26122	34644.22813	35750.44317	43786.34577	34797.83553	39631.22947	34352.60133	30166.11617	38041.05339	37027.39259	40006.29097	31287.66016	36078.66534	32866.40428	37063.72535	41751.90386	42930.06307	35704.84026	32811.50718	42529.04538	31485.19944	51051.75537	45805.34139	33463.39625	32636.04238	35745.4073	49264.49636	33242.86227	40386.39452	34269.25143	28057.17629	37708.59028	37053.54151	41780.86351	25273.15625	38234.63056
180	240	37307.00869	39179.89927	40338.4056	46512.96793	33797.78613	34668.82071	37986.82216	31768.70959	49517.76256	44854.20956	35051.65985	35174.05078	35749.42962	49995.78923	36816.34326	42386.86733	37449.12296	33847.30447	37235.1224	38851.74582	40624.53732	30786.31797	38905.9811	34926.55178	38829.97156	41976.62153	44212.8398	34908.43862	31025.09467	38139.92271	32812.99891	49557.29934	45784.90867	37592.37649	33193.88867	37852.11553	46419.64395	35612.49322	38649.92325	36257.69388	30492.21096	37025.74913	36677.50879	40716.24313	27219.67643	37520.14042
240	300	34898.99817	37162.67497	39693.31201	42034.48241	35310.48131	31945.73059	41114.78248	31863.50015	47687.18892	43803.28216	34413.58796	31762.30684	32286.95634	49973.52379	34707.61072	40643.46356	36443.48441	30721.03007	36223.36719	36333.06565	38431.89407	26199.15781	37405.32821	34391.57792	38010.27883	41072.352	44079.87994	35240.07171	31304.76081	39038.93706	32196.37305	48613.86847	45350.96023	36521.77041	31437.65605	37059.20213	47085.26574	36273.96388	39142.02577	35141.7358	29521.02763	36283.81033	35596.73554	39957.51775	26542.5612	36909.91972
300	360	35081.48194	37822.30716	36619.78369	44562.54854	30937.89844	33913.92438	34647.16607	31507.38537	45586.53781	40997.05062	35643.7773	32614.25664	32262.8159	45553.48229	35265.63353	38832.62277	33413.20807	30401.77892	35260.88965	36090.76948	36847.00209	28027.26641	36235.95778	30710.05381	36937.54591	36904.93848	40864.18731	30757.83371	29199.96434	34794.66389	30569.84766	42837.41459	40490.17548	35174.74036	33067.97676	36008.62909	47020.6249	30780.73907	36853.2384	32098.63311	29252.38337	35896.34071	34991.80127	37013.59692	28204.23698	36101.17399
360	480	29682.67022	33535.10927	34024.10026	39348.44861	29701.23396	30862.05594	35492.50164	28227.61929	41246.60259	37154.70894	31652.93798	29022.33594	32311.73589	42645.44501	32155.79405	37948.25554	30394.40398	27835.32421	31897.49447	31751.12327	35007.48389	27469.26367	35563.5017	30088.80123	33531.85844	35317.65191	39234.27896	30511.53327	27183.1824	33013.70623	28552.30382	42802.25146	37634.38229	31991.27306	28648.94629	29949.01475	41783.42799	31431.46877	35455.99174	30978.27006	28229.9567	32665.98264	33212.47467	35755.07703	26257.00195	33986.56566
480	600	27570.3922	29289.97234	31117.52441	34998.10587	25207.94364	27377.55352	29075.08563	25515.4037	38462.13098	33142.6568	30288.63611	26642.26055	26978.52753	38100.15395	29413.12492	31725.42849	29015.39478	26120.94362	28589.87663	29698.91032	31344.03583	26520.13633	31166.395	26526.05798	31603.54572	32537.66265	34608.09338	26706.05218	26518.09138	30132.91192	27039.0944	37058.15731	32309.44406	30454.12376	27064.65195	28512.73083	35582.03125	28242.89671	29314.16236	26694.43962	25640.26358	31165.23242	31916.41945	33622.57026	24777.59701	30979.56321
600	900	24256.02144	27376.20096	25190.94548	31275.26137	22200.25321	24809.19495	26018.56402	24084.38807	31186.97879	27692.38553	27045.91934	24687.14004	24940.34611	30825.49109	25584.21294	26825.90085	23931.79183	24460.86463	26829.51139	26642.09062	27979.01146	22677.01133	27544.68806	23642.36117	28110.59174	27227.55165	30495.7584	22959.66113	23156.59239	25989.12777	21901.27843	32341.94918	28059.2249	25481.63615	25576.66875	25474.73152	30355.4153	25107.01891	26555.81357	23196.6346	23806.36643	28678.9056	28164.04059	29142.71293	20831.5013	27302.81231
900	1200	20193.69525	23890.65107	20235.46281	25337.32712	18696.23368	20950.47815	20070.38122	18756.67841	24699.57976	22324.19578	21362.66927	21472.58096	20159.4261	24590.60691	20910.21437	22966.99547	19348.678	21635.74675	24816.00814	23114.15684	23182.34296	19492.53672	23559.05523	21221.50242	23478.21317	23560.32563	24399.44431	20358.12451	21112.55699	20829.52661	20159.07921	26354.48969	22574.926	22130.68256	21613.09746	20887.42079	24656.01628	21536.91341	21980.44416	18983.40556	20750.65769	23736.1135	23979.48019	24641.2897	19973.07812	23641.00874
1200	1500	18581.3792	20127.1157	18437.96704	21964.6078	16290.15618	20072.26557	18146.58276	16775.41106	20992.83902	18656.27088	20303.84507	19102.88613	19577.22107	20083.6914	18588.09646	19299.30097	17081.38236	19772.9833	20231.86849	20648.50455	20492.52973	17553.23945	20362.27957	17714.93271	19432.69721	19204.7391	21414.05184	16980.55845	18985.23635	17924.16105	16211.75022	20798.13084	18419.66878	19731.59268	19127.75938	18044.39019	20148.94989	18373.71565	19187.87733	16213.30932	19370.20998	20449.84831	21615.34009	21150.74153	18409.69596	21284.97998
1500	1800	15483.00587	18364.85776	15071.64478	19058.42734	14739.45201	18210.85699	15819.28038	15356.75706	18430.57627	16194.45576	16823.3337	17714.01318	15870.88842	18720.71898	16801.35271	17252.25748	14624.1455	17604.93055	19427.94596	18826.67392	18792.25842	19238.45781	19232.65073	16801.07841	18247.94394	17423.99208	17870.29154	16611.12706	16899.63908	16435.49398	13029.3303	18325.37447	16573.84354	16559.55052	18041.44502	15674.38371	17487.24872	15688.26427	17179.1925	14529.86881	18052.1164	19013.21984	19417.32196	19435.60956	17147.34245	18717.14188
1800	2100	15079.93766	16874.76531	13780.99805	16633.38696	13510.43785	16794.61098	14721.45206	13076.65828	15781.23487	14473.67861	14634.30044	17080.22002	14449.21158	15657.42767	14739.6936	16806.83046	13325.56548	17049.77972	17294.11556	16893.67189	16423.79031	16301.84609	17621.79607	15186.93293	16361.34469	14782.24756	16705.36682	13855.03467	16595.70134	14179.58125	13030.537	16015.48346	14453.12255	15182.39287	16397.94102	14593.72664	15770.78031	14774.27115	16137.42143	13016.97676	16705.1461	16714.37261	16348.40575	17153.23216	16622.04688	17690.52132
2100	2400	13957.80903	14912.79038	12896.80037	15534.47072	12704.42746	15521.36787	14248.93523	12523.90587	15023.23494	13418.57514	14280.09482	15476.09512	13790.08116	14345.84366	14904.31449	15091.7899	11847.88548	15392.20171	15920.64844	15189.36536	15754.51378	16214.19707	16463.49332	14268.80073	15364.59689	15089.5714	15907.66004	13203.59511	14497.52929	13894.49326	11497.03928	15325.68175	13610.52108	14083.96703	15161.2041	13235.61215	14559.69118	14168.15716	13880.1944	12404.20291	15674.24085	16389.57042	16382.17089	15330.71405	14381.53711	15499.76162
2400	2700	11426.32941	11751.13201	11403.07552	14300.3135	11163.79771	15765.27043	12656.10835	11930.05138	12985.62061	11992.52238	14568.61074	12345.55488	12686.99587	12559.57125	13719.05388	12739.90627	10872.06993	13658.48189	11657.79085	14636.0571	14740.72434	13686.86758	14887.41675	12298.19826	12750.51869	12030.73524	13672.66084	10783.9443	13896.97767	11362.06615	11446.19575	13234.17051	11981.8286	13149.10684	12948.36172	12918.52324	12231.99331	12889.87065	13617.19329	10669.10539	13477.53453	13476.47624	14675.91027	13863.30978	15479.54329	14644.0325
2700	3000	12043.8867	13237.67026	10825.21948	13380.06646	10232.30971	14722.49576	11000.95951	11354.47145	11740.25376	10728.78219	13362.3722	12154.59482	14216.6906	12077.07397	12165.14564	13467.77798	10596.92453	13340.71584	13297.26318	13344.00089	13687.51513	15294.50273	14367.58038	12360.76073	12277.90796	12068.74669	12943.65998	11553.57181	12527.23648	11480.51369	9153.16526	12258.4731	10779.66242	12079.42958	10637.37314	10870.77457	11607.40418	10808.71526	11554.83482	9561.31076	13807.30559	11784.06597	14368.59791	13823.86438	13509.44759	13249.25991
3000	3300	10386.31627	10737.79072	10058.04289	11915.97973	10440.87926	12539.7056	10551.11672	8551.30987	10529.6411	10140.68153	11250.70755	10062.69082	11838.57052	9726.53445	10781.98752	10875.7115	9245.1429	12164.16158	11749.0223	12020.85255	11809.66937	14773.79824	12345.45175	10951.71878	9795.81616	12078.20654	11101.71723	12510.00698	13391.79566	11523.97858	9326.76378	11459.12652	10579.06998	11367.95722	11143.93809	10221.48301	9906.93024	10450.26234	10431.61476	9138.15336	11571.09708	11047.81673	13116.87854	12631.97862	13884.73177	12144.92485
3300	3600	9597.04636	10541.559	8383.2911	10487.82596	9513.32966	11374.10126	10499.80427	9275.38308	9223.55212	9557.74474	10218.47133	11035.87646	10407.15797	9408.18803	8965.02718	10902.12873	8507.69738	11361.01114	10625.45573	10596.29563	11044.59615	14953.63926	11845.58386	11104.41673	11351.10805	10867.84866	9902.51313	11776.41459	10676.3468	10484.11308	8505.43652	10065.47768	9463.17765	10895.39066	11273.63193	8780.96012	8561.08764	9833.95568	9799.84224	8502.40641	12207.62125	11932.37478	12528.46568	12419.82857	13439.48177	11284.548
3600	3900	10309.05056	10591.48038	9504.55819	10651.91597	10603.95912	11399.01723	10566.32632	8947.50038	10355.14693	9409.06552	9626.10228	11596.88477	9435.27144	9582.48835	9717.17978	9755.75102	8485.87021	10892.67244	11349.13981	10811.62181	11117.99503	11723.60762	10745.6496	9772.88408	10250.40514	8995.59172	10797.48772	8426.14544	10853.74814	7520.18568	8151.59673	8999.39122	8571.41281	9214.99441	10556.40254	9124.23734	9536.009	9432.06637	9934.08647	7870.5415	10147.46614	10338.27941	10763.40857	10193.92369	10590.48307	11135.11836
3900	4200	7431.28529	7849.08758	8947.32048	8378.73738	10742.87228	11282.59528	9698.29106	7494.65809	9016.52409	8054.18133	10038.48488	7134.59805	8371.28693	8932.47304	8818.90678	9594.33222	7796.55854	8737.59056	8523.14771	10152.6141	10218.81302	11082.7418	10771.96651	9805.57688	8380.0454	9664.05539	8769.06633	10039.80169	11952.26276	8919.52738	7189.77333	9374.74552	8596.34499	9384.24804	8639.35879	8042.67477	7892.48171	8876.64077	8479.44185	7197.2545	10511.29244	8896.77919	10082.23438	10028.37524	9874.98861	10073.52451
4200	4500	10996.3998	7937.93064	7984.93762	8655.00038	8922.91389	10115.05927	9223.46279	8206.20162	7056.95952	6745.98992	9920.81517	7765.19927	10001.14497	7225.41896	8292.17545	8530.63573	6389.98875	10039.15676	7330.90926	9615.26116	10019.43507	10563.4791	9856.63151	9862.98639	8344.30604	8797.63151	8780.50224	8288.48431	8326.94782	8342.48071	7741.95334	8788.6506	7953.98891	7339.74771	8343.26929	7742.59622	7308.3702	7141.99781	8385.99555	7663.87373	10356.93168	8607.47418	10417.83212	10030.22465	9462.29134	8828.82632
4500	4800	7545.0378	7849.79701	6951.39502	8521.38556	8606.1121	9282.3874	9376.52418	7179.2515	8308.49218	7230.4735	8198.90818	11080.1752	7389.31373	7953.68531	8045.1784	9017.57718	6899.02284	8981.79993	9323.38534	9585.4567	9404.11083	9195.27363	10131.70714	7859.37918	7494.83576	7604.24718	7406.7812	7205.27576	9973.22559	6831.68148	6248.23991	7564.36667	6883.00976	7798.94949	10287.65488	6246.43044	7153.66461	7780.82339	8126.19997	6789.3855	9643.86305	9189.28141	9090.99431	8510.94242	10802.92448	9942.13964
4800	5100	8848.95162	7733.10195	7217.40759	10634.26694	9152.5376	9855.89899	8318.30121	10170.09367	7725.71531	7405.52522	10740.82677	7967.41899	9026.56134	7393.72996	8689.31758	8039.65165	6753.46692	8669.5115	8326.91618	8899.18597	8700.52512	12333.87676	10168.30687	8494.08641	7791.88863	6947.32278	7657.27299	6902.22351	7048.33041	6116.91495	7050.41531	6069.4016	5944.17581	7075.45997	8575.3251	6042.36785	8710.34048	6892.92665	8265.08097	7219.16114	8619.15318	8200.79058	8237.16271	7819.74462	9505.72266	9810.27271
5100	5400	8081.0973	7483.93648	7195.79789	8591.52263	7758.3938	7382.6128	6422.30491	6033.89036	6599.68587	6586.96102	8062.98997	8449.09946	7625.98468	6363.74102	6511.11356	8215.28388	7134.68963	8530.45506	8983.18815	8684.44109	7583.80165	10615.2248	8094.05122	8106.3899	6777.46741	8528.91983	7182.14748	8454.35955	9484.92251	8049.14879	4525.2848	7662.19016	6778.25301	8235.2409	7159.31484	5126.44153	8193.57739	6383.8338	8609.34433	6628.25849	7242.55675	6250.08697	7547.02223	8449.77381	8152.54036	9975.87027
