frame_start	frame_end	Left-Cerebral-White-Matter	Left-Cerebellum-White-Matter	Left-Cerebellum-Cortex	Left-Thalamus	Left-Caudate	Left-Putamen	Left-Pallidum	Brain-Stem	Left-Hippocampus	Left-Amygdala	CSF	Left-Accumbens-area	Left-VentralDC	Left-choroid-plexus	Right-Cerebral-White-Matter	Right-Cerebellum-White-Matter	Right-Cerebellum-Cortex	Right-Thalamus	Right-Caudate	Right-Putamen	Right-Pallidum	Right-Hippocampus	Right-Amygdala	Right-Accumbens-area	Right-VentralDC	Right-choroid-plexus	AirCavity	Skull	Vermis	Pons	CSF-ExtraCerebral	Head-ExtraCerebral	ctx-lh-bankssts	ctx-lh-caudalanteriorcingulate	ctx-lh-caudalmiddlefrontal	ctx-lh-cuneus	ctx-lh-entorhinal	ctx-lh-fusiform	ctx-lh-inferiorparietal	ctx-lh-inferiortemporal	ctx-lh-isthmuscingulate	ctx-lh-lateraloccipital	ctx-lh-lateralorbitofrontal	ctx-lh-lingual	ctx-lh-medialorbitofrontal	ctx-lh-middletemporal	ctx-lh-parahippocampal	ctx-lh-paracentral	ctx-lh-parsopercularis	ctx-lh-parsorbitalis	ctx-lh-parstriangularis	ctx-lh-pericalcarine	ctx-lh-postcentral	ctx-lh-posteriorcingulate	ctx-lh-precentral	ctx-lh-precuneus	ctx-lh-rostralanteriorcingulate	ctx-lh-rostralmiddlefrontal	ctx-lh-superiorfrontal	ctx-lh-superiorparietal	ctx-lh-superiortemporal	ctx-lh-supramarginal	ctx-lh-frontalpole	ctx-lh-temporalpole	ctx-lh-transversetemporal	ctx-lh-insula	ctx-rh-bankssts	ctx-rh-caudalanteriorcingulate	ctx-rh-caudalmiddlefrontal	ctx-rh-cuneus	ctx-rh-entorhinal	ctx-rh-fusiform	ctx-rh-inferiorparietal	ctx-rh-inferiortemporal	ctx-rh-isthmuscingulate	ctx-rh-lateraloccipital	ctx-rh-lateralorbitofrontal	ctx-rh-lingual	ctx-rh-medialorbitofrontal	ctx-rh-middletemporal	ctx-rh-parahippocampal	ctx-rh-paracentral	ctx-rh-parsopercularis	ctx-rh-parsorbitalis	ctx-rh-parstriangularis	ctx-rh-pericalcarine	ctx-rh-postcentral	ctx-rh-posteriorcingulate	ctx-rh-precentral	ctx-rh-precuneus	ctx-rh-rostralanteriorcingulate	ctx-rh-rostralmiddlefrontal	ctx-rh-superiorfrontal	ctx-rh-superiorparietal	ctx-rh-superiortemporal	ctx-rh-supramarginal	ctx-rh-frontalpole	ctx-rh-temporalpole	ctx-rh-transversetemporal	ctx-rh-insula
0	30	35.86937713623047	51.97337341308594	34.93522644042969	26.55442237854004	7.628876686096191	23.185447692871094	35.32601547241211	31.118619918823242	46.263397216796875	141.680419921875	-13.271854400634766	0.20323795080184937	6.5389909744262695	-90.9932861328125	28.790851593017578	28.6466121673584	24.778759002685547	73.86853790283203	78.33598327636719	11.398224830627441	36.28300476074219	21.61161231994629	-10.160787582397461	-52.34659957885742	58.83491134643555	109.31201171875	6.5278120040893555	31.88771629333496	8.15827465057373	59.73086929321289	31.596412658691406	31.913923263549805	11.458459854125977	43.6046142578125	15.854975700378418	1.6869343519210815	16.335205078125	40.7107048034668	21.431184768676758	19.4399471282959	-46.91238784790039	27.745468139648438	21.901647567749023	49.268314361572266	8.788742065429688	2.5121350288391113	110.51658630371094	5.56075382232666	3.0859034061431885	23.098033905029297	20.839141845703125	-17.108741760253906	27.187450408935547	48.2470703125	19.426546096801758	70.53140258789062	46.73348617553711	26.51926040649414	9.183637619018555	19.781822204589844	55.90277099609375	8.26388931274414	36.29472732543945	145.43621826171875	38.128173828125	95.10079193115234	19.875707626342773	108.87136840820312	-7.159231185913086	44.33197784423828	255.11753845214844	5.347966194152832	34.60064697265625	45.4720344543457	-11.74947738647461	25.04853057861328	80.9637680053711	43.96977996826172	41.17856216430664	59.11823272705078	99.72734832763672	18.675783157348633	-2.779601812362671	23.35608673095703	137.8176727294922	91.05253601074219	59.806182861328125	-31.55521583557129	43.780609130859375	26.18494415283203	-34.57994842529297	21.424440383911133	46.389251708984375	30.123882293701172	11.966428756713867	69.93522644042969	84.38062286376953	-31.719913482666016	82.91201782226562	105.64157104492188
30	60	831.9202880859375	2018.444091796875	3539.180419921875	3644.94287109375	4968.6416015625	4804.9521484375	3508.2724609375	3708.01513671875	4216.39453125	2899.948974609375	812.3551635742188	3184.52490234375	2718.75732421875	14046.625	914.5103149414062	1897.6806640625	3373.260498046875	3999.79443359375	4442.93359375	4789.9404296875	1534.5867919921875	3519.877685546875	3945.494140625	6113.3427734375	3055.95654296875	12853.8935546875	525.2285766601562	583.7155151367188	3278.346435546875	2907.664306640625	1987.3721923828125	1035.490478515625	4114.66357421875	5306.24365234375	6583.572265625	7871.06494140625	5821.4150390625	3203.045166015625	5063.16064453125	4230.89453125	5782.5244140625	5368.11328125	6155.26318359375	6446.490234375	6196.78857421875	4572.46826171875	5898.88427734375	4623.46630859375	6377.9931640625	5206.97509765625	6542.025390625	10814.5634765625	5586.3740234375	4226.455078125	5166.3125	5323.248046875	6111.515625	6126.5771484375	6013.32373046875	4307.05810546875	4842.45556640625	4988.6123046875	6867.5732421875	3207.34814453125	6274.234375	5925.4267578125	5161.31982421875	6735.47021484375	5569.63623046875	7315.99609375	6757.32470703125	3923.83447265625	5185.916015625	4032.803466796875	6599.3388671875	6141.1240234375	6759.38232421875	6184.9580078125	5908.052734375	3966.189453125	3682.50927734375	5374.80859375	5924.60009765625	5101.021484375	5899.8720703125	10228.7646484375	5230.1728515625	6491.2392578125	5216.078125	6021.99267578125	5173.6787109375	5952.7685546875	5297.07861328125	4517.67578125	4598.94921875	4701.55859375	7608.69873046875	2751.173095703125	9495.3359375	5161.22998046875
60	90	3611.947021484375	8221.0322265625	14828.8232421875	15491.255859375	20596.3046875	21608.62109375	7666.74462890625	12204.255859375	14979.6787109375	10581.23828125	4070.747802734375	17580.583984375	10724.0322265625	39799.84765625	3567.21875	7540.68701171875	14495.0498046875	17662.607421875	19705.81640625	21815.498046875	8347.7802734375	14931.0703125	10866.3623046875	15365.6796875	10994.115234375	35118.84765625	2042.1680908203125	1917.38525390625	14549.1240234375	11058.8681640625	5689.572265625	3921.615234375	19547.740234375	15894.1142578125	26834.46484375	29894.6796875	16781.390625	14445.8359375	20928.892578125	17952.953125	21499.30859375	23166.794921875	23157.88671875	27688.662109375	22899.607421875	17486.34375	9389.5146484375	18089.69921875	23613.357421875	21866.078125	25985.48828125	46591.6953125	22119.900390625	23638.80078125	22751.400390625	22142.767578125	21270.513671875	25147.90625	22571.71484375	21329.189453125	16814.521484375	20250.3515625	29877.08984375	10024.93359375	25510.4609375	19447.9765625	21526.81640625	21650.416015625	23083.294921875	33409.89453125	15895.6103515625	16027.7109375	22500.65625	18117.861328125	20460.84375	26791.97265625	23774.3125	26190.046875	22145.431640625	17870.345703125	11360.2353515625	22264.412109375	24196.658203125	20830.65625	23678.3203125	43489.85546875	22408.951171875	24694.12109375	23218.095703125	23732.2578125	19657.892578125	25253.84375	23315.603515625	22335.296875	17861.669921875	21411.572265625	29565.98828125	11149.4462890625	34225.20703125	16966.466796875
90	120	6582.21923828125	14007.7666015625	26938.361328125	29890.498046875	38182.0859375	38702.69140625	15271.1806640625	21224.814453125	26666.724609375	17875.431640625	5475.927734375	26693.228515625	19877.2578125	79274.5546875	6744.3779296875	12694.01171875	26720.947265625	31519.96875	36874.96484375	38212.734375	14894.048828125	25563.71875	17870.48046875	22993.55859375	21723.681640625	40582.76953125	3123.763671875	3457.145263671875	24780.482421875	20885.84375	7149.68701171875	6483.20849609375	35164.64453125	32292.298828125	48686.984375	51636.359375	27482.740234375	26868.255859375	38819.90625	32759.650390625	34459.30078125	43077.95703125	41190.015625	47733.328125	43019.921875	32612.26171875	22186.521484375	38079.4453125	44614.78515625	39372.19140625	48254.9765625	78566.265625	39691.75390625	37528.2890625	43038.41796875	40755.54296875	38421.0390625	45923.58203125	42648.83203125	39694.15625	32840.64453125	37928.7421875	55173.328125	22021.8984375	53062.94140625	31450.24609375	36099.9296875	34902.86328125	47138.11328125	57352.26171875	27947.0078125	27874.25390625	42373.671875	33192.08203125	41778.90625	48176.37109375	43902.6484375	46184.62109375	39938.55078125	34296.00390625	25607.974609375	40274.91015625	40785.7421875	42741.48046875	47339.6953125	78422.8046875	41215.69921875	43446.9921875	42043.68359375	42340.57421875	32798.0546875	46360.84375	42913.375	43480.3984375	33515.60546875	38601.08984375	56651.21484375	21172.728515625	62298.8046875	26469.205078125
120	150	9568.125	21422.984375	38410.15625	42702.8359375	54917.7109375	56789.29296875	22720.421875	29681.8125	35782.43359375	29971.173828125	7413.90625	45638.6171875	29952.765625	103776.875	9660.5380859375	20275.47265625	38897.04296875	46845.328125	50124.3828125	58646.69140625	19130.88671875	36657.37890625	30170.142578125	42844.58203125	31601.962890625	62712.19140625	4169.8916015625	4991.8876953125	38973.58984375	30359.85546875	7963.73193359375	8849.466796875	52776.234375	48317.71875	72643.984375	79797.875	38065.1640625	40625.87890625	58053.17578125	48145.49609375	55645.109375	64454.32421875	60070.20703125	69974.765625	59228.05078125	48808.73046875	33738.95703125	51528.76953125	64339.87109375	57240.8828125	68719.1953125	121315.359375	58704.46484375	60532.0859375	62944.86328125	59924.453125	50640.26171875	68451.0078125	63413.46875	59946.5859375	47099.99609375	54861.02734375	75494.171875	35299.578125	76640.46875	40592.92578125	52739.8046875	52147.08203125	68670.9296875	82566.5390625	36598.7890625	42233.15234375	63076.87109375	50503.47265625	57263.84765625	72302.8125	61140.25	67324.5078125	59996.828125	50872.51171875	36039.90234375	58043.2421875	63869.75	61428.22265625	67422.3984375	107471.953125	61637.46875	63336.8203125	62814.9375	63528.05859375	46569.87890625	68214.5703125	62980.69140625	61963.0546875	49368.60546875	58151.640625	77698.9296875	32216.9453125	86660.90625	36948.33203125
150	180	10494.7333984375	23361.375	42492.66796875	47531.17578125	62173.32421875	64490.3203125	23632.130859375	31752.234375	37316.8828125	37727.2890625	6828.94580078125	51429.75	33819.40625	99461.5234375	10408.2666015625	21295.82421875	43189.52734375	51489.10546875	61433.296875	64501.66796875	22877.859375	39553.04296875	29096.15234375	37884.76171875	32990.2890625	63258.37890625	4330.55126953125	5236.00927734375	40030.01171875	33881.84375	5020.16552734375	9327.220703125	56195.640625	47654.8359375	81401.53125	81289.3359375	37978.50390625	45046.05859375	64746.1640625	53823.15234375	56149.546875	70466.4140625	63259.671875	79719.7421875	67037.90625	54327.3203125	39775.515625	60361.84375	69999.7578125	65267.609375	74898.6328125	126671.421875	67673.21875	63782.703125	69966.0078125	66213.859375	58317.75390625	75602.6484375	69577.265625	69128.0078125	52329.64453125	62318.3046875	85394.9375	40181.05078125	81100.015625	42989.25390625	61021.90625	58786.14453125	77532.890625	87379.8203125	39229.9765625	48987.00390625	70690.6015625	55785.828125	66557.40625	80645.1875	65733.328125	68378.671875	61654.671875	57220.80859375	38405.4140625	69316.5546875	68297.0234375	69922.2109375	77006.8203125	119087.65625	70617.6953125	68725.2734375	68956.8984375	67516.75	51825.03125	76545.9375	69847.3984375	72557.6015625	55526.76953125	65093.52734375	89718.359375	37028.18359375	89373.6875	38730.1328125
180	240	11190.0361328125	24289.9296875	42134.265625	47416.859375	63357.140625	63836.13671875	21884.818359375	30908.69921875	36330.91796875	34620.48828125	5332.71435546875	59765.40234375	32293.53125	68573.140625	11048.6357421875	22080.66796875	42840.66796875	51991.578125	58934.69140625	65926.140625	21329.9375	39529.3515625	28389.568359375	39096.41015625	33006.609375	72139.5234375	3688.871826171875	5515.0576171875	41491.84765625	34347.8125	4289.1650390625	9392.0009765625	57791.23828125	48401.3828125	76501.8046875	80388.2265625	37931.2421875	46480.671875	63696.64453125	52636.0234375	58827.11328125	68400.171875	62655.70703125	72939.6875	64535.34765625	53786.546875	34241.59375	61537.40234375	67981.1328125	62664.171875	74148.609375	120299.1796875	68004.703125	61298.22265625	68242.109375	64622.22265625	55993.4296875	73250.890625	67514.734375	67266.8125	52258.73046875	60199.15234375	79629.1484375	37926.0703125	77176.515625	43046.1484375	61757.44921875	55871.9921875	74074.7890625	84612.7421875	36183.87890625	45997.06640625	68555.21875	56956.9453125	60052.5078125	78493.7421875	63397.81640625	69292.3828125	62581.67578125	57314.33984375	40640.046875	70831.734375	65532.66015625	67827.125	72282.3828125	109947.5390625	68925.21875	66342.96875	68254.671875	67455.5234375	49422.640625	74797.7265625	68247.671875	71292.6171875	53207.8203125	64137.703125	84318.2421875	39409.12109375	90880.9453125	39964.89453125
240	300	11429.0185546875	23329.908203125	39790.08203125	45406.3984375	58665.47265625	63953.03125	24642.658203125	29430.486328125	33423.5234375	34524.58984375	3711.947265625	51138.66015625	31712.525390625	48896.01171875	11542.04296875	21240.2265625	40364.01953125	48851.78125	56262.30078125	62781.2265625	22485.0078125	35042.88671875	29634.958984375	32974.2890625	32011.650390625	59201.40625	3322.768798828125	5541.8212890625	40655.74609375	33006.21484375	3362.90380859375	9503.73046875	53258.81640625	47158.5234375	71228.4296875	77623.78125	36665.6015625	43011.60546875	60402.2578125	51044.7421875	50513.04296875	64172.40234375	57963.64453125	66953.734375	62875.23046875	50830.71875	39983.10546875	54392.55859375	63294.3203125	60397.7734375	68847.1015625	109349.0859375	63461.76171875	59514.765625	63098.17578125	59646.60546875	51574.41796875	69365.828125	63470.8984375	63685.640625	49488.625	57518.54296875	76837.2578125	37091.8828125	72938.984375	40131.8359375	59246.64453125	49887.3359375	67927.03125	79098.328125	33684.12890625	45265.69140625	65755.859375	52627.76953125	57602.46875	73583.8984375	59832.20703125	62582.9296875	59054.86328125	55898.83984375	36637.44140625	63738.66796875	60118.75390625	63736.92578125	69020.15625	96942.578125	63410.6953125	59081.2578125	63816.65234375	62226.9609375	47122.34765625	69454.3984375	63476.93359375	66691.671875	50027.03515625	58785.49609375	82855.65625	38521.32421875	80175.9140625	40124.37109375
300	360	11486.369140625	23162.8125	36990.546875	42386.2578125	55212.91796875	56007.3203125	23990.984375	29185.19921875	31216.62890625	31641.056640625	2838.79248046875	51953.41015625	31463.9609375	46702.3359375	11696.638671875	20922.349609375	37897.66015625	47741.73828125	52915.16796875	56434.71484375	23562.072265625	33785.8359375	29840.21484375	32242.271484375	28896.2265625	53577.87109375	3045.3271484375	5757.2001953125	35428.90234375	30793.919921875	3344.071044921875	9440.66796875	49096.9609375	41577.1796875	61875.125	67539.8359375	34142.46875	41924.125	55610.2578125	46273.65234375	48385.359375	57404.48828125	52204.4765625	59318.78515625	57720.85546875	47407.81640625	33089.24609375	50422.94921875	56259.3828125	52924.90625	62475.1484375	95201.75	58785.7734375	52800.84375	58209.21875	54631.6796875	48466.64453125	63542.76953125	57836.3515625	57724.3984375	47071.45703125	51834.8203125	70729.3828125	39691.44140625	63561.51953125	40049.87109375	52231.40234375	50687.0078125	60454.94921875	69631.1640625	31702.26171875	42801.2890625	59888.88671875	49022.83203125	48526.08984375	66188.9609375	53300.6484375	55731.84375	54257.16015625	50888.01953125	34982.33203125	58101.8828125	55137.765625	55113.56640625	60042.0	85084.8359375	58134.69921875	58070.97265625	57839.71875	55608.765625	43141.390625	63667.84375	56791.69921875	61045.72265625	46282.27734375	54193.625	75208.578125	37700.1640625	71222.078125	37166.3203125
360	480	11627.796875	21818.3203125	32887.1796875	39510.03125	47976.0859375	50996.1875	24879.986328125	25633.904296875	28657.2578125	30668.716796875	2825.10205078125	45887.109375	29170.634765625	26299.748046875	11753.8408203125	19688.845703125	33848.11328125	43380.8984375	44700.76953125	51755.6328125	21010.810546875	30919.044921875	27275.822265625	34421.953125	29107.150390625	34731.6953125	2745.530517578125	5824.3984375	32765.654296875	28873.927734375	2983.83740234375	9528.6240234375	44539.94921875	38942.76171875	54058.51953125	58243.37890625	31632.224609375	38233.125	47914.734375	43114.98046875	41728.70703125	50595.609375	46167.19140625	51334.16796875	49803.0390625	42994.2265625	32511.3984375	46307.97265625	49257.171875	47141.76953125	54949.98046875	80107.0859375	51376.70703125	45538.17578125	50554.59765625	47426.37890625	41611.625	55423.94921875	50836.4921875	51685.47265625	42038.94921875	45669.8984375	61275.796875	34632.72265625	54219.6640625	36826.3203125	45621.15234375	42683.3203125	52535.69921875	58287.0546875	28040.8515625	39308.50390625	52350.77734375	44298.42578125	44323.09765625	58001.75	47651.2734375	48575.61328125	47478.68359375	45026.39453125	33495.69921875	50373.08203125	47728.2578125	48843.4921875	52811.453125	71361.359375	51289.328125	48194.28515625	49671.99609375	49332.13671875	41187.87890625	55567.39453125	49532.99609375	54808.41015625	42905.9609375	47778.21484375	66354.828125	33916.80078125	61789.62109375	35065.26953125
480	600	11916.611328125	20955.646484375	28677.462890625	34813.27734375	40943.17578125	44196.76171875	24623.796875	23919.212890625	25168.544921875	30904.640625	1930.08447265625	38649.94921875	26687.005859375	9544.2412109375	12123.2470703125	19657.033203125	29098.201171875	37237.640625	37195.2578125	43556.44921875	25638.5	26224.25	27100.546875	30362.591796875	27609.67578125	29900.3671875	2235.4052734375	6086.1806640625	28421.818359375	25953.9140625	2192.250244140625	9305.080078125	36782.453125	33621.79296875	44819.8203125	49194.203125	28109.138671875	33065.1796875	40664.984375	37321.47265625	35134.73046875	42707.9609375	38566.1171875	43860.20703125	43910.37890625	37310.69921875	30294.3125	37862.7890625	41310.078125	41304.5625	45450.453125	60619.6328125	43271.92578125	40735.1171875	42535.41796875	40443.8046875	35390.2109375	45484.37890625	42849.31640625	44594.70703125	36849.51171875	38893.0625	52983.84375	34232.40234375	44440.8046875	33063.640625	39524.88671875	36024.58203125	45356.13671875	50521.5703125	27280.681640625	35119.9921875	44193.14453125	38419.6484375	36671.83203125	49531.56640625	40400.546875	41142.85546875	39963.39453125	38452.41796875	28567.705078125	44588.94140625	39188.90625	40166.91796875	42822.12109375	55857.8984375	42542.99609375	38374.89453125	41575.1953125	41152.15625	34663.8046875	46142.94140625	42203.828125	46593.16796875	36833.484375	40730.0625	55073.7578125	30565.59765625	46580.26171875	30510.34765625
600	900	12324.2626953125	19717.076171875	23098.498046875	28793.18359375	30809.23828125	34685.71875	24986.33984375	21216.806640625	21658.76171875	27488.501953125	820.0307006835938	32343.87109375	24441.916015625	11892.8662109375	12465.771484375	18718.5234375	23577.1640625	31569.193359375	28472.130859375	33898.45703125	23809.638671875	22285.61328125	23975.927734375	25923.791015625	26102.001953125	22615.84375	1990.279541015625	6451.7373046875	23862.64453125	23400.7109375	1972.902099609375	9374.091796875	29909.951171875	27343.896484375	34452.23046875	39745.1484375	26890.873046875	28045.201171875	32416.970703125	30505.21484375	28446.1171875	33525.125	31225.6015625	34568.64453125	34237.61328125	29460.982421875	24000.357421875	30256.84375	32130.630859375	32109.390625	36528.421875	45666.30078125	33811.66796875	30640.859375	33442.9296875	31131.943359375	29103.966796875	36217.8828125	33426.26953125	34981.92578125	30567.623046875	30430.01171875	42226.2421875	29437.73828125	36856.14453125	28884.9765625	31856.521484375	29769.341796875	34729.15625	38217.74609375	22137.1328125	29438.033203125	35257.5625	31293.958984375	29406.029296875	39216.70703125	32556.771484375	32817.84765625	32058.701171875	31394.201171875	26337.671875	33522.53125	31010.828125	33070.4609375	34372.87890625	41865.16796875	34253.19140625	32394.37109375	32506.4609375	32057.380859375	27394.73828125	36412.92578125	32463.625	36358.578125	30199.015625	31757.390625	42111.734375	28452.03515625	34313.4921875	27295.84765625
900	1200	12914.015625	17968.81640625	17711.3359375	22931.46484375	22073.072265625	25596.0078125	23701.150390625	17820.150390625	16816.24609375	22815.962890625	490.6996765136719	21906.30859375	21974.806640625	7761.77978515625	12855.2890625	18027.4296875	17840.53125	24597.47265625	20009.494140625	25158.166015625	22056.814453125	17308.369140625	19867.830078125	17978.380859375	22882.99609375	14778.1748046875	1507.0252685546875	7037.234375	18863.447265625	20479.67578125	2057.527099609375	9311.8994140625	23215.3125	21266.39453125	25864.20703125	28781.404296875	22418.61328125	23301.98828125	24660.017578125	24934.298828125	22115.796875	25357.7109375	24353.44140625	26864.67578125	27161.857421875	22753.7578125	20531.20703125	23401.103515625	24172.322265625	25538.171875	27415.232421875	32058.541015625	25417.806640625	23456.30859375	25479.201171875	24162.892578125	21832.328125	27268.861328125	25083.564453125	26160.77734375	24376.666015625	22967.9296875	31919.27734375	24017.640625	27806.564453125	23162.462890625	24749.7578125	24167.15234375	25552.634765625	29484.958984375	19402.71484375	23215.7109375	26954.87109375	25013.048828125	23038.130859375	30099.03515625	26080.595703125	24916.681640625	25317.515625	24164.271484375	20155.076171875	24213.51953125	23502.966796875	26857.69921875	26263.283203125	31292.619140625	25112.50390625	25233.421875	24627.44140625	24806.2265625	21781.056640625	27750.248046875	24863.080078125	27878.5546875	23571.453125	24280.353515625	32222.94140625	23208.74609375	29075.90234375	21837.0
1200	1500	12923.1806640625	16615.078125	14044.38671875	18626.03125	16610.736328125	19342.390625	20195.919921875	15286.5224609375	13506.986328125	19477.140625	415.57049560546875	17094.623046875	20440.59375	4513.71337890625	12972.0830078125	16538.130859375	14063.5791015625	19160.40625	14576.8984375	19210.9375	20405.93359375	14490.1826171875	16705.53125	12751.736328125	19304.236328125	21604.89453125	1340.1961669921875	7487.0732421875	14496.9482421875	18244.78515625	1907.8770751953125	9232.947265625	18636.1875	18680.6953125	20613.384765625	24343.287109375	18699.767578125	19642.43359375	19880.556640625	20787.607421875	18602.62890625	19975.59765625	20413.59375	22385.259765625	21625.26171875	18540.345703125	17913.998046875	18134.974609375	19107.720703125	21623.51953125	22266.736328125	25174.826171875	20120.55859375	19563.1953125	19910.296875	19233.9375	18061.83203125	21923.060546875	20877.6171875	20937.552734375	19667.46875	18612.1171875	27141.48046875	20804.54296875	21729.68359375	20137.529296875	20189.34375	19335.875	20895.93359375	23485.8046875	16969.28125	19951.22265625	22281.44921875	20393.748046875	19856.345703125	24755.15234375	21679.681640625	20891.232421875	20639.720703125	19850.501953125	15966.1171875	18666.28515625	20187.576171875	22402.751953125	21337.736328125	24339.8125	19887.865234375	19721.4140625	19480.755859375	20192.806640625	16783.0390625	22284.208984375	19601.044921875	21984.599609375	19042.234375	19581.806640625	25438.474609375	19159.62109375	22819.5546875	17638.42578125
1500	1800	12697.6728515625	15666.677734375	11116.1279296875	15174.037109375	12615.2080078125	15276.4453125	19470.9921875	13304.392578125	11281.8798828125	17527.439453125	624.0984497070312	8484.2939453125	17516.80078125	2758.479736328125	12670.6962890625	15499.123046875	11164.712890625	15489.7822265625	11148.42578125	14963.8134765625	18573.658203125	11792.2001953125	12705.9404296875	10846.8154296875	16681.650390625	9996.314453125	1124.4896240234375	7677.39990234375	12020.2822265625	16354.671875	1955.713623046875	9078.79296875	15335.951171875	15327.658203125	17128.01953125	19566.7890625	16371.87109375	17281.9765625	17019.47265625	18188.81640625	16422.369140625	17076.458984375	17850.1328125	19215.037109375	18650.634765625	15077.234375	14948.2841796875	14684.109375	15654.75390625	18018.3828125	19036.697265625	20067.431640625	17310.330078125	15874.419921875	16459.177734375	16296.5244140625	16066.7353515625	18468.529296875	16796.724609375	17335.57421875	16575.072265625	15267.3056640625	20964.353515625	16329.98046875	18795.14453125	17029.72265625	16386.69140625	16641.48046875	17163.884765625	19674.123046875	14055.97265625	17336.27734375	18421.10546875	17628.5546875	16523.97265625	20593.041015625	18024.65234375	17818.58984375	16798.55859375	16425.0859375	12472.9296875	16554.869140625	17490.1484375	18720.55078125	17532.681640625	20526.54296875	16595.33203125	17199.6875	15390.0419921875	16720.375	13018.8583984375	18539.384765625	16003.9501953125	18409.478515625	15593.59375	16082.8515625	22537.69140625	15152.7138671875	18531.998046875	15097.2490234375
1800	2100	12292.728515625	13608.9130859375	9233.998046875	11919.1142578125	10723.5732421875	13335.1357421875	15087.658203125	10884.4892578125	10019.6435546875	14667.568359375	1897.9388427734375	7875.40576171875	14367.1689453125	-234.3490447998047	12014.171875	13832.224609375	9197.095703125	12334.517578125	9570.6826171875	12233.408203125	15573.478515625	10344.7158203125	10668.05859375	5957.14599609375	15494.0888671875	8200.75	1061.237060546875	7588.7470703125	8256.6826171875	14253.4677734375	2419.21240234375	8473.5185546875	14038.126953125	12889.466796875	13582.896484375	17981.26171875	13027.1064453125	15429.037109375	14016.6748046875	15652.4130859375	13274.1337890625	14288.4189453125	14443.818359375	17350.025390625	16034.0517578125	13253.400390625	10849.48828125	11217.6416015625	14567.3115234375	15330.5751953125	16684.150390625	16116.4189453125	13574.6318359375	13722.525390625	13832.26171875	13951.5634765625	14164.0927734375	15334.8125	14235.8076171875	14476.6435546875	14133.8447265625	12830.814453125	17991.453125	15332.5361328125	16950.375	14344.57421875	14626.9150390625	13966.4296875	14554.10546875	15986.6904296875	10614.9951171875	14974.9814453125	16340.0390625	14699.5810546875	15021.9580078125	18342.611328125	15331.70703125	16635.1328125	14584.982421875	14503.052734375	9856.2705078125	12869.4072265625	15184.056640625	15097.2421875	15194.8505859375	16519.42578125	14109.5380859375	14348.3447265625	13413.5947265625	14901.0830078125	11483.193359375	16378.8408203125	13533.51953125	15358.1923828125	13579.919921875	14051.4150390625	18087.52734375	14695.5205078125	16186.9716796875	12801.4892578125
2100	2400	11583.8349609375	12725.3037109375	7500.43994140625	10250.31640625	8980.8515625	11179.6328125	13467.626953125	9339.2529296875	8211.8564453125	11504.2001953125	1272.676513671875	1222.3975830078125	13309.33984375	-530.5267333984375	11643.5263671875	12538.9267578125	7712.70703125	10190.4130859375	7044.681640625	10109.060546875	12998.3203125	8044.3193359375	9778.6455078125	1308.066162109375	12275.1259765625	6242.712890625	1057.4774169921875	7361.0810546875	7786.912109375	12735.8837890625	2446.959228515625	8066.2802734375	12211.3720703125	10663.53125	11916.228515625	14304.1513671875	12173.34375	14530.435546875	12943.67578125	13868.19140625	13360.19140625	12968.603515625	12986.1474609375	15274.1171875	14223.1962890625	11886.1162109375	9237.9658203125	8722.255859375	12645.3046875	14606.5625	14572.98046875	15317.015625	12370.353515625	12336.8349609375	12189.564453125	12086.146484375	12838.064453125	14127.994140625	12226.919921875	12043.75	12903.9990234375	11549.5146484375	16203.2861328125	11803.587890625	14758.5126953125	12884.0859375	12677.8505859375	11851.443359375	11978.115234375	14696.8369140625	8777.61328125	13776.7333984375	13818.4423828125	13241.8330078125	13288.3408203125	16056.11328125	13346.3271484375	14347.6484375	12848.421875	12281.064453125	10858.9716796875	10112.4736328125	13831.4208984375	13423.4873046875	13919.0595703125	14499.6826171875	11686.2509765625	12373.57421875	10897.857421875	12737.8193359375	10858.501953125	14211.46875	11688.255859375	12657.08984375	11369.458984375	12152.5478515625	16976.552734375	12032.5791015625	13938.546875	11760.658203125
2400	2700	10993.1767578125	11550.5908203125	6273.78564453125	8777.8818359375	7394.63671875	8753.26953125	11727.3603515625	8483.646484375	7657.49169921875	10647.8623046875	1627.6875	4104.80419921875	10812.677734375	1656.8055419921875	11006.203125	11634.416015625	6225.22900390625	8110.9921875	6303.1767578125	7894.6572265625	13236.60546875	6869.65625	8046.2607421875	-860.6437377929688	11124.23046875	8604.5947265625	961.2398071289062	7281.37109375	6536.279296875	11295.3173828125	2526.24072265625	7975.53759765625	11159.1357421875	9141.671875	10894.0703125	12632.8369140625	9336.8291015625	13569.36328125	11096.0771484375	12636.51171875	11145.9052734375	11614.8583984375	11813.0126953125	13939.0498046875	13705.76171875	10508.75390625	7883.46875	7999.05810546875	11163.310546875	12520.333984375	12427.9619140625	13296.4365234375	10790.66796875	10821.2998046875	10735.576171875	11149.5263671875	10463.4921875	12209.3955078125	10659.00390625	10985.2431640625	11006.630859375	10530.029296875	15539.8837890625	11187.7265625	13386.2197265625	11376.3603515625	11122.109375	9003.6591796875	10595.3818359375	12655.744140625	6454.787109375	12928.6181640625	12561.095703125	11604.8359375	10873.8955078125	14306.72265625	12236.8173828125	13196.44140625	10986.033203125	11077.275390625	9142.9970703125	8184.287109375	12225.53125	11886.5908203125	12116.685546875	12416.056640625	10449.5576171875	11650.1484375	9944.50390625	11329.029296875	9616.615234375	12178.1376953125	10053.73828125	11295.5498046875	10490.6376953125	10706.9462890625	13214.4990234375	9638.8037109375	11161.7568359375	10274.8134765625
