frame_start	frame_end	Left-Cerebral-White-Matter	Left-Cerebellum-White-Matter	Left-Cerebellum-Cortex	Left-Thalamus	Left-Caudate	Left-Putamen	Left-Pallidum	Brain-Stem	Left-Hippocampus	Left-Amygdala	CSF	Left-Accumbens-area	Left-VentralDC	Left-choroid-plexus	Right-Cerebral-White-Matter	Right-Cerebellum-White-Matter	Right-Cerebellum-Cortex	Right-Thalamus	Right-Caudate	Right-Putamen	Right-Pallidum	Right-Hippocampus	Right-Amygdala	Right-Accumbens-area	Right-VentralDC	Right-choroid-plexus	AirCavity	Skull	Vermis	Pons	CSF-ExtraCerebral	Head-ExtraCerebral	ctx-lh-bankssts	ctx-lh-caudalanteriorcingulate	ctx-lh-caudalmiddlefrontal	ctx-lh-cuneus	ctx-lh-entorhinal	ctx-lh-fusiform	ctx-lh-inferiorparietal	ctx-lh-inferiortemporal	ctx-lh-isthmuscingulate	ctx-lh-lateraloccipital	ctx-lh-lateralorbitofrontal	ctx-lh-lingual	ctx-lh-medialorbitofrontal	ctx-lh-middletemporal	ctx-lh-parahippocampal	ctx-lh-paracentral	ctx-lh-parsopercularis	ctx-lh-parsorbitalis	ctx-lh-parstriangularis	ctx-lh-pericalcarine	ctx-lh-postcentral	ctx-lh-posteriorcingulate	ctx-lh-precentral	ctx-lh-precuneus	ctx-lh-rostralanteriorcingulate	ctx-lh-rostralmiddlefrontal	ctx-lh-superiorfrontal	ctx-lh-superiorparietal	ctx-lh-superiortemporal	ctx-lh-supramarginal	ctx-lh-frontalpole	ctx-lh-temporalpole	ctx-lh-transversetemporal	ctx-lh-insula	ctx-rh-bankssts	ctx-rh-caudalanteriorcingulate	ctx-rh-caudalmiddlefrontal	ctx-rh-cuneus	ctx-rh-entorhinal	ctx-rh-fusiform	ctx-rh-inferiorparietal	ctx-rh-inferiortemporal	ctx-rh-isthmuscingulate	ctx-rh-lateraloccipital	ctx-rh-lateralorbitofrontal	ctx-rh-lingual	ctx-rh-medialorbitofrontal	ctx-rh-middletemporal	ctx-rh-parahippocampal	ctx-rh-paracentral	ctx-rh-parsopercularis	ctx-rh-parsorbitalis	ctx-rh-parstriangularis	ctx-rh-pericalcarine	ctx-rh-postcentral	ctx-rh-posteriorcingulate	ctx-rh-precentral	ctx-rh-precuneus	ctx-rh-rostralanteriorcingulate	ctx-rh-rostralmiddlefrontal	ctx-rh-superiorfrontal	ctx-rh-superiorparietal	ctx-rh-superiortemporal	ctx-rh-supramarginal	ctx-rh-frontalpole	ctx-rh-temporalpole	ctx-rh-transversetemporal	ctx-rh-insula
0	30	164.79147338867188	138.1491241455078	146.7732391357422	185.94778442382812	136.47996520996094	325.75054931640625	154.77809143066406	242.5426025390625	244.25828552246094	221.74330139160156	122.99781036376953	229.10772705078125	288.7057189941406	154.0809326171875	171.1341552734375	222.9379119873047	194.66465759277344	249.1522674560547	148.1086883544922	160.1326904296875	412.95892333984375	222.71365356445312	180.23423767089844	239.37339782714844	275.5152587890625	108.87251281738281	134.70712280273438	155.45620727539062	105.42378997802734	230.171630859375	235.00677490234375	127.64124298095703	197.65054321289062	237.31593322753906	131.89295959472656	207.2375030517578	179.78651428222656	167.8872528076172	174.61416625976562	158.51119995117188	253.72117614746094	161.1949462890625	256.0978698730469	160.2689666748047	341.8142395019531	199.09446716308594	149.087646484375	185.4531707763672	272.2880554199219	209.44241333007812	197.46302795410156	217.76377868652344	207.68466186523438	258.42742919921875	195.7200927734375	197.95741271972656	266.8902893066406	200.64990234375	247.6374053955078	129.87733459472656	248.77154541015625	207.6051483154297	325.0006408691406	372.7192077636719	158.8756561279297	264.9515380859375	232.47317504882812	239.5991668701172	148.853759765625	213.5917510986328	192.4334259033203	188.78770446777344	158.46942138671875	132.98770141601562	225.23004150390625	126.97007751464844	276.3761901855469	168.13082885742188	344.4690246582031	170.88714599609375	226.7244110107422	245.8757781982422	201.5125732421875	231.49948120117188	227.14138793945312	129.60646057128906	191.37147521972656	310.5550231933594	167.25979614257812	203.5440216064453	290.1419982910156	227.44017028808594	229.248779296875	163.97467041015625	267.8907470703125	229.90626525878906	177.70498657226562	405.5069885253906	271.2196044921875	410.5583801269531
30	60	4805.673828125	4684.63134765625	6121.46826171875	6828.7529296875	5645.4951171875	7434.90185546875	4305.0654296875	5262.0087890625	5797.40283203125	4432.7626953125	3523.329345703125	8151.1064453125	5621.35205078125	4565.13037109375	4812.39599609375	4558.21484375	5957.24609375	6591.2578125	5561.1103515625	7216.27490234375	6367.345703125	5527.29150390625	5840.841796875	6663.27001953125	5881.74609375	4115.03662109375	1903.0081787109375	1966.8062744140625	6240.60693359375	5401.76123046875	5845.2900390625	1333.616455078125	6547.255859375	7433.7177734375	6144.50048828125	7630.7568359375	4814.68994140625	5981.88916015625	5609.525390625	5556.53173828125	7196.06396484375	4970.853515625	6187.31103515625	6430.826171875	6972.177734375	5728.92041015625	5776.33154296875	6397.87158203125	6566.61865234375	6591.76416015625	6512.51171875	7699.5380859375	5904.23095703125	7634.45751953125	6144.99951171875	7742.68896484375	6936.03662109375	6488.18017578125	6805.76416015625	6084.8125	6449.0947265625	6271.708984375	7603.31103515625	5740.38671875	8153.39990234375	6373.86328125	6821.8935546875	8067.43359375	5919.732421875	7668.51025390625	4407.2451171875	5489.28759765625	5783.375	6031.3193359375	7038.1650390625	4966.9150390625	6580.701171875	6414.82763671875	7427.4169921875	6204.09326171875	5271.47021484375	6478.65625	6144.61962890625	6980.23974609375	6578.3388671875	8086.6962890625	5972.94580078125	7556.72509765625	6013.8359375	7246.94189453125	5641.01611328125	6479.94091796875	7002.37890625	5909.66845703125	6520.9677734375	6107.59765625	6742.7177734375	4696.1435546875	7356.96435546875	6731.24658203125
60	90	13776.296875	13392.9755859375	17408.431640625	19849.119140625	16722.16015625	22215.8984375	14461.7392578125	14206.224609375	15611.6005859375	13550.24609375	9632.8720703125	20193.431640625	16035.42578125	11895.5869140625	13881.3115234375	13864.6318359375	17052.9765625	19588.15234375	15324.546875	21474.091796875	17391.884765625	14690.6845703125	14312.54296875	19496.0390625	16270.015625	9313.77734375	5249.26806640625	5049.947265625	17389.50390625	14379.9375	15503.78125	3443.9404296875	17861.974609375	18135.63671875	18153.642578125	20904.486328125	13807.5029296875	17312.892578125	16268.1669921875	16428.345703125	20698.53515625	14373.3232421875	16309.412109375	19878.4609375	18958.99609375	16235.8603515625	15544.4580078125	17532.306640625	17849.9609375	18430.998046875	18635.0625	24449.517578125	17060.578125	21561.78125	16976.931640625	21353.0390625	17690.478515625	18946.03515625	19062.267578125	16969.92578125	17290.607421875	17747.013671875	20977.142578125	13643.5380859375	22104.908203125	17495.390625	18334.537109375	19876.603515625	17491.541015625	22263.0390625	13339.71484375	17098.640625	16455.84375	16998.05859375	20210.265625	15012.935546875	17021.333984375	18932.609375	18965.650390625	17116.3046875	15711.28125	18085.927734375	17625.080078125	19192.34375	17164.4921875	24307.140625	16770.259765625	21151.4453125	16890.49609375	20595.900390625	14664.3154296875	18487.02734375	19758.982421875	16668.6171875	17488.353515625	17094.541015625	21485.068359375	11608.8486328125	20994.353515625	17850.17578125
90	120	25634.01953125	25657.970703125	31827.955078125	36792.09765625	30639.65234375	38399.53125	26940.970703125	27331.1328125	29279.564453125	26139.4140625	18577.171875	36017.4609375	28312.84765625	21762.302734375	25919.60546875	25208.42578125	32039.134765625	36539.6171875	32082.111328125	40492.12890625	30504.228515625	27555.216796875	26892.50390625	39280.62890625	30855.9296875	20121.083984375	9477.5576171875	9072.373046875	31897.044921875	28304.494140625	28096.607421875	6232.60107421875	32163.982421875	32910.6171875	34216.6875	36553.9453125	25648.916015625	31847.56640625	30615.365234375	30842.341796875	36928.9375	26863.69140625	31553.591796875	36401.87109375	33224.3984375	31389.814453125	30783.099609375	33868.3671875	32430.095703125	34628.265625	35014.80078125	42868.8984375	30907.638671875	38473.98046875	31901.9921875	39140.18359375	32435.314453125	34693.265625	35144.74609375	31598.986328125	33023.91796875	32220.240234375	39528.01953125	26091.587890625	40087.29296875	33669.33984375	35470.1484375	37165.53125	32159.765625	41544.9296875	24635.708984375	32212.552734375	30177.6484375	31834.919921875	36125.8515625	28602.681640625	32013.041015625	35474.171875	36519.55078125	32297.193359375	30209.50390625	33998.46484375	32092.841796875	35831.1484375	33171.9375	43208.4921875	30545.13671875	39007.12890625	31528.55859375	39744.41015625	28256.05078125	34340.9609375	36765.60546875	31137.353515625	32723.00390625	31318.767578125	39663.75	22414.732421875	36146.68359375	32319.25390625
120	150	37110.01171875	37816.61328125	46942.94140625	53629.1875	43010.08203125	57854.81640625	39109.23046875	37992.3671875	39053.734375	36427.203125	25928.017578125	53805.35546875	42613.1171875	30904.6875	36972.15625	37130.07421875	47301.01171875	54309.96484375	46085.53125	59444.8984375	42697.4296875	38832.984375	37917.703125	51765.6875	41263.44921875	28564.685546875	13181.28515625	12384.5400390625	51468.96484375	39242.52734375	39285.96484375	8525.37109375	45327.11328125	46466.73828125	48189.20703125	52646.9609375	38722.0625	47797.30078125	45114.93359375	44113.8984375	51277.90625	39793.0390625	45381.76171875	52140.921875	45410.0859375	45159.07421875	44318.3671875	48816.16796875	47838.6484375	49298.2578125	49499.5703125	63758.41015625	46510.96875	56233.9609375	46324.78125	55857.75390625	43072.55078125	50368.98828125	50255.0859375	45216.1875	45639.48828125	47843.140625	54666.7578125	36940.10546875	53976.91015625	46367.14453125	49127.0546875	50111.51953125	46445.8828125	59636.66015625	35249.76171875	47532.8203125	43362.33984375	45525.08984375	49367.75	39970.41796875	44328.9140625	51524.17578125	49994.68359375	46496.7109375	41188.32421875	47865.1484375	46110.1796875	48870.80859375	47560.2578125	63500.0078125	44324.50390625	55818.75390625	45144.65234375	54533.6015625	39144.76953125	49383.47265625	51161.890625	45231.22265625	45328.37109375	45571.9609375	58140.203125	30805.705078125	51850.5	44952.90625
150	180	40450.546875	40848.4140625	51966.546875	57657.37109375	48568.54296875	62991.26171875	44133.3359375	42490.94921875	43337.15234375	37650.0546875	27416.412109375	56246.765625	44989.8125	32480.822265625	40767.51953125	40345.0234375	51666.125	57481.640625	50742.30859375	65814.3203125	49792.01953125	42138.85546875	44536.2421875	57103.66015625	44629.78125	30760.404296875	14442.34375	13073.09375	53543.70703125	43800.71875	42051.46875	9004.0888671875	48624.8984375	51231.30859375	51457.9296875	57338.07421875	41939.00390625	52623.60546875	49063.2421875	49664.24609375	55566.88671875	43376.91015625	48111.828125	56119.5	49615.65234375	49253.4375	45998.9765625	53683.484375	52019.1171875	56263.69921875	53216.02734375	69439.90625	49799.4296875	61994.76953125	50476.66796875	59890.6953125	46850.64453125	54876.203125	54986.0	49346.00390625	49927.25390625	51398.33984375	58124.69921875	40385.04296875	60422.5234375	50198.31640625	53591.12890625	56791.21484375	49336.3125	64737.19140625	38276.046875	52011.3671875	48892.265625	50016.02734375	54633.75	44855.46484375	49459.6328125	55584.08203125	55727.43359375	49676.203125	46680.453125	54115.2578125	51302.48828125	54601.4453125	51485.2421875	69428.0078125	49299.98046875	61291.59375	49457.00390625	60070.87109375	43557.8046875	54312.53125	55941.28125	48341.59765625	49268.63671875	49232.95703125	59748.2421875	33683.0703125	55758.23828125	50244.53515625
180	240	41878.6484375	42679.02734375	54136.73046875	59651.94921875	50708.1015625	64879.15625	45551.64453125	43447.21484375	45035.12109375	40544.84765625	27727.640625	62846.97265625	44959.58203125	30320.091796875	41681.51171875	41810.26953125	53443.5390625	61014.9921875	49463.56640625	66768.296875	52556.4921875	42048.46484375	40058.453125	58502.51171875	46051.92578125	29972.1484375	14819.998046875	13329.23828125	58341.3984375	44714.92578125	42679.171875	9282.291015625	51799.53125	54569.953125	53335.4296875	57299.76953125	43502.7265625	54420.57421875	50543.94921875	51609.6796875	57242.1640625	44677.6015625	51380.34765625	56067.14453125	51289.78125	50867.953125	48953.74609375	56455.6015625	53060.8828125	56730.51171875	56001.90625	68672.9375	51645.78125	62622.640625	51797.42578125	61386.15234375	49949.98046875	56100.62890625	55918.66796875	50583.89453125	51889.3984375	53403.93359375	59780.77734375	41962.27734375	58534.08203125	51548.33984375	54574.1640625	56779.671875	51464.2578125	64109.8046875	39315.66796875	53627.90234375	49290.75	52692.02734375	56412.484375	45479.6640625	51001.65234375	56029.2578125	56431.3984375	52198.56640625	46513.59375	55823.29296875	52069.72265625	54224.22265625	52604.41796875	69292.21875	49789.5	62965.03125	50872.375	59696.59765625	43007.12109375	54932.05859375	57152.71484375	49349.25	51063.2265625	50117.1796875	63019.41015625	39147.58984375	56197.30078125	50265.703125
240	300	41538.36328125	42811.5546875	53113.39453125	58633.66015625	48188.45703125	64103.109375	45371.95703125	43276.171875	43994.26171875	41720.05078125	27324.462890625	61045.1328125	46332.70703125	30076.369140625	41328.25	41060.8359375	52870.92578125	59826.67578125	48506.3671875	66632.5234375	51454.40625	42163.45703125	41139.94140625	57542.2578125	46248.4921875	28467.6796875	14649.486328125	13401.3818359375	55629.90234375	44869.10546875	41432.015625	9550.96875	50126.32421875	51837.6484375	52043.02734375	54106.28125	41139.4609375	53520.21875	49286.921875	50961.73046875	53651.578125	43598.1484375	50040.51953125	54498.30859375	50283.48828125	49702.87890625	48560.8984375	53469.7890625	52074.58984375	56366.76171875	53685.75	65545.953125	50601.87109375	60840.7109375	50500.41796875	58186.859375	48943.40625	54750.62109375	54180.84375	49597.49609375	50492.8046875	51325.83203125	58095.86328125	42254.53515625	58891.359375	51628.6171875	53554.671875	56588.54296875	49881.45703125	61158.18359375	40201.4765625	52969.77734375	48975.62109375	52040.60546875	53658.484375	44258.42578125	51304.66796875	54173.61328125	55698.30859375	49850.71875	46505.7890625	54041.13671875	50473.59765625	53003.8515625	51817.7265625	65246.61328125	48666.77734375	61221.73828125	49273.17578125	57885.125	44837.14453125	53269.42578125	55478.41015625	48172.67578125	50092.265625	48423.51171875	62520.16796875	38362.9453125	54649.55078125	49745.90234375
300	360	39512.07421875	40875.47265625	50278.50390625	57017.890625	44486.79296875	59648.40625	45875.77734375	40471.79296875	42165.73046875	42293.1640625	25745.677734375	57726.51171875	43932.76171875	25579.853515625	39388.3515625	40111.4453125	50336.47265625	57686.98046875	45849.28125	61959.27734375	49514.5703125	38965.4296875	36399.13671875	57062.859375	45819.1015625	26158.6796875	14342.130859375	13131.83984375	51843.5859375	42584.40625	38968.546875	9554.5009765625	48420.98828125	48629.6015625	49195.2734375	49497.71875	41314.15625	51207.25390625	46577.1796875	48051.4453125	50996.5078125	40699.15234375	48867.08984375	50166.55078125	48760.359375	46788.2734375	44225.39453125	50674.96875	49796.2109375	51342.5078125	50069.5	60543.78515625	47441.3046875	55846.46484375	47608.08984375	54820.87109375	46806.875	51251.359375	51360.67578125	46530.05859375	47867.0859375	48853.8046875	54512.546875	41288.51953125	54085.93359375	49155.5078125	48621.57421875	51440.6015625	47035.74609375	56984.2265625	39045.83984375	50688.06640625	46010.265625	49965.828125	49950.4296875	42006.328125	48942.890625	51134.61328125	51899.9765625	47616.984375	43913.97265625	50225.15234375	47467.38671875	50736.78125	49244.86328125	59246.95703125	45225.046875	56584.30078125	45839.44921875	53233.65234375	43164.85546875	49964.2265625	51460.98828125	45391.96484375	47015.2421875	45854.9375	56593.96484375	37178.12890625	48232.28515625	47736.94140625
360	480	35932.72265625	38205.31640625	45157.58203125	50844.15234375	38379.25390625	52875.203125	41546.50390625	37982.0859375	38495.5078125	38986.703125	23325.591796875	50681.46484375	40960.125	23375.017578125	35931.09375	37818.78515625	44953.0390625	52098.55078125	39347.73046875	54869.61328125	45981.39453125	35458.92578125	35790.91015625	49637.640625	41945.99609375	24296.271484375	13016.322265625	12364.783203125	47347.64453125	39281.3359375	34548.69921875	9494.3330078125	43710.37890625	43712.20703125	43880.65234375	42996.1796875	35635.078125	45725.77734375	41151.38671875	43704.35546875	43127.1328125	36413.046875	43478.89453125	44517.4375	44405.1171875	42288.68359375	41733.45703125	44389.296875	44390.3984375	44985.8828125	45166.3515625	50350.16015625	42196.0859375	49741.8046875	42208.6875	47720.1953125	43213.1484375	45613.5859375	45241.6953125	41073.92578125	42754.86328125	42580.1953125	47529.12109375	38702.76171875	45156.8828125	44063.58203125	43813.9296875	46778.328125	41574.07421875	48773.61328125	35246.98828125	45388.5703125	40193.82421875	44314.2109375	44286.26171875	37321.51171875	44915.21484375	44566.12890625	47909.05859375	42015.1640625	41707.90234375	44531.12109375	42696.453125	42958.421875	42792.72265625	49905.29296875	40646.04296875	50125.59765625	41186.8125	47411.37109375	39295.3984375	44901.73828125	45787.73828125	40071.35546875	41794.7578125	40206.52734375	50942.8046875	37262.5546875	41510.06640625	43894.89453125
480	600	31588.873046875	34390.1953125	38612.6875	44246.03515625	32658.75390625	45478.6171875	38025.984375	34049.19921875	34547.96875	35639.28125	20467.47265625	45295.5546875	36656.63671875	20955.220703125	31479.126953125	33559.9140625	38462.8515625	44947.4921875	34832.55859375	45457.84375	41265.546875	32154.751953125	29805.11328125	44040.5234375	37464.859375	21557.267578125	11843.865234375	11367.52734375	39902.30078125	35525.5	29213.681640625	9311.001953125	37032.15625	37489.53125	37293.08984375	35726.05859375	33507.27734375	39331.21875	34680.078125	38046.52734375	37103.63671875	30793.80078125	37673.58203125	37752.85546875	38670.7109375	35908.54296875	35977.34375	37658.67578125	37560.703125	38967.6015625	38556.6640625	40445.0859375	35657.703125	40421.62890625	35998.9765625	39658.81640625	36864.87109375	38960.48828125	38208.99609375	34428.15234375	36572.953125	36349.22265625	38923.1484375	35168.140625	38749.85546875	39218.24609375	37621.87109375	39135.57421875	35551.08984375	39578.03125	30436.74609375	38987.55859375	34275.33984375	38365.9765625	36831.6484375	32034.990234375	39634.78515625	37710.87109375	40847.4296875	35991.79296875	35261.1015625	37692.44921875	35295.64453125	36195.015625	36417.98046875	41223.05859375	34071.81640625	41095.1875	34385.58984375	39228.97265625	33888.30859375	38270.28515625	38617.671875	33940.23828125	35261.14453125	33999.00390625	44322.23046875	33803.140625	35119.86328125	38503.91015625
600	900	26673.326171875	29908.78515625	29981.771484375	35388.35546875	25452.93359375	35004.75390625	32957.4296875	28629.73828125	28173.58984375	30583.419921875	17189.580078125	33149.6640625	31167.517578125	17479.26171875	26526.9609375	29116.509765625	29922.142578125	36356.6875	26047.294921875	36164.65234375	35357.68359375	26342.392578125	27074.837890625	33599.39453125	31203.98828125	18235.279296875	10486.7265625	10165.0390625	30823.564453125	30726.759765625	23082.314453125	9068.9619140625	29842.94140625	30761.685546875	29865.080078125	27529.796875	27558.154296875	31287.2734375	27274.263671875	30058.095703125	28805.013671875	24942.54296875	30493.1171875	29541.833984375	31284.83203125	28395.640625	28960.919921875	29285.53515625	29978.205078125	30198.427734375	29677.87890625	31215.701171875	28143.431640625	31527.16015625	28362.951171875	30782.904296875	30280.419921875	30544.7734375	30188.12890625	27235.65234375	29546.56640625	28301.193359375	30641.259765625	30574.78515625	31158.2109375	31998.412109375	29475.2109375	30953.21875	28024.017578125	30603.7578125	25543.609375	31028.185546875	26926.576171875	30776.693359375	28761.66015625	25911.14453125	32272.5	29921.884765625	33272.1171875	28569.697265625	28866.548828125	29834.72265625	28169.587890625	27708.810546875	28250.400390625	31163.958984375	26804.244140625	31701.548828125	27383.876953125	30037.875	28564.845703125	29964.244140625	30505.271484375	26685.10546875	28096.23828125	26614.83203125	33881.328125	29869.658203125	27781.724609375	31512.3359375
900	1200	22206.6328125	24560.400390625	21747.267578125	25940.287109375	18288.90625	26069.392578125	27381.216796875	22969.033203125	22345.923828125	24101.09375	13812.3466796875	24600.888671875	25164.169921875	14057.1533203125	22081.8046875	24235.783203125	21635.046875	26541.119140625	19516.099609375	27029.94921875	27728.52734375	20906.7578125	21088.490234375	24497.181640625	25032.2109375	15257.7822265625	9279.544921875	8982.32421875	22736.470703125	25304.7890625	17400.435546875	8813.5830078125	22975.84765625	23431.751953125	22660.236328125	21111.494140625	21454.67578125	23835.45703125	20582.83984375	23390.18359375	21731.681640625	19104.208984375	23651.0546875	22423.654296875	23690.166015625	21416.353515625	21603.580078125	21957.20703125	22431.705078125	22342.603515625	22836.861328125	23159.75	21456.234375	23944.08203125	21738.748046875	22828.314453125	23703.115234375	22961.064453125	22900.919921875	20543.783203125	22577.8984375	21830.03125	23097.94140625	24773.677734375	23841.126953125	24898.359375	22828.0625	23287.39453125	21423.16015625	22911.44140625	19738.67578125	23485.162109375	20624.591796875	23399.994140625	21065.48828125	19752.6953125	25133.19921875	22249.583984375	24904.009765625	21751.740234375	21520.115234375	22454.529296875	21114.408203125	20758.005859375	21424.85546875	23145.072265625	20530.8828125	24402.603515625	20951.12890625	22342.71875	23477.7734375	22766.77734375	23230.453125	20264.94140625	21583.439453125	20288.5	24596.681640625	25734.630859375	21783.443359375	24526.07421875
1200	1500	19700.763671875	20832.373046875	16769.564453125	20113.21484375	14812.1201171875	20703.05078125	23062.001953125	18707.72265625	18201.138671875	19553.765625	11769.9716796875	18505.703125	21091.736328125	11708.2685546875	19552.99609375	20711.005859375	16747.412109375	20554.580078125	15761.634765625	21093.103515625	24231.740234375	16897.970703125	17976.74609375	18851.990234375	20938.185546875	12744.3564453125	8509.0693359375	8247.453125	17499.66796875	21665.560546875	14430.5927734375	8669.17578125	19892.697265625	20052.494140625	18753.841796875	17668.857421875	18895.73828125	20021.29296875	16931.240234375	19256.501953125	17541.3984375	16244.6337890625	19837.82421875	18693.0546875	19459.6796875	17613.384765625	18585.966796875	18224.40625	19006.517578125	18560.4765625	18466.08203125	19466.783203125	17783.79296875	19852.080078125	18013.849609375	18799.70703125	19916.103515625	18998.05859375	19179.7734375	17121.65625	18788.998046875	18312.9765625	18530.599609375	21077.978515625	19935.6796875	20679.6328125	19057.091796875	19413.5546875	18032.01171875	18964.5546875	16333.5634765625	19671.34375	17471.02734375	19838.4765625	18199.279296875	17058.654296875	21064.21484375	18809.908203125	20771.4453125	18377.08984375	17679.39453125	19077.48828125	18017.75390625	17444.326171875	18289.609375	19766.396484375	17188.9375	20171.53125	17737.783203125	18775.193359375	20692.439453125	18936.421875	19477.30859375	16985.474609375	17883.47265625	17245.5234375	20488.0859375	21313.111328125	18565.064453125	20429.58984375
1500	1800	18009.7421875	18393.80859375	13863.8974609375	16302.0888671875	12894.0859375	17632.201171875	20788.708984375	16457.228515625	15591.802734375	16705.068359375	10676.345703125	15434.51953125	17643.056640625	11048.88671875	17907.404296875	18195.103515625	13700.92578125	16723.703125	13200.68359375	18337.01953125	20234.833984375	14858.076171875	16562.6171875	15761.318359375	18463.48046875	11635.9990234375	8271.0634765625	7831.8466796875	14495.068359375	19359.501953125	12728.5869140625	8601.8330078125	17545.59375	17571.75	16975.197265625	15678.720703125	16387.2578125	17768.728515625	15010.70703125	17296.140625	16344.6845703125	14806.7490234375	17223.8359375	16796.986328125	16962.701171875	15304.8046875	15777.607421875	15480.1494140625	16914.876953125	15856.087890625	16476.146484375	17593.826171875	15558.919921875	17392.333984375	15895.7216796875	16455.123046875	17542.48046875	16693.958984375	16949.677734375	15033.6298828125	16520.3984375	16343.9443359375	16580.283203125	17400.890625	18014.486328125	17944.802734375	16689.59375	16993.81640625	15887.2861328125	17300.1015625	14637.32421875	17202.9296875	15480.13671875	17033.734375	15948.607421875	15329.107421875	18065.47265625	16714.845703125	17648.142578125	16129.525390625	15559.6015625	16068.6494140625	15937.7255859375	15339.376953125	16128.4404296875	17851.9140625	15259.3759765625	17969.953125	15780.6513671875	16518.34765625	18245.90625	16806.15625	16981.5234375	15003.525390625	15800.564453125	15371.5869140625	17251.53515625	19243.552734375	16404.615234375	18234.203125
1800	2100	16730.35546875	16406.482421875	11795.5810546875	14165.3193359375	11844.830078125	15676.06640625	17176.3359375	14147.9365234375	13655.6015625	13965.890625	9680.8525390625	13369.0654296875	15395.3203125	9619.0595703125	16577.34375	16220.177734375	11774.9150390625	13918.4814453125	11500.6474609375	15753.4287109375	17468.302734375	13458.0390625	14361.1357421875	12580.658203125	15663.0771484375	10793.3505859375	7879.45166015625	7508.05029296875	12735.732421875	16155.1884765625	11603.4912109375	8501.0791015625	15971.2890625	16689.248046875	15141.4765625	14677.642578125	14489.4326171875	16149.775390625	13739.8427734375	15650.673828125	14478.638671875	13640.85546875	15619.859375	15534.439453125	15435.662109375	13874.123046875	14473.74609375	14213.7216796875	15173.349609375	14631.6298828125	14540.705078125	16203.54296875	14087.0693359375	16332.6318359375	14466.9228515625	15238.9306640625	15900.3203125	14978.822265625	15396.81640625	13735.6318359375	14999.2734375	14875.7412109375	15236.8857421875	15086.6044921875	16073.2919921875	16344.60546875	15274.578125	15577.8564453125	14658.4873046875	15557.9375	12845.955078125	15595.4951171875	14244.0	15796.4912109375	14484.7373046875	14188.701171875	16573.017578125	15240.03515625	15760.0263671875	14741.716796875	14300.279296875	14754.9013671875	14962.580078125	13854.5234375	15260.392578125	16421.771484375	14006.91015625	16019.9208984375	14475.423828125	14791.3466796875	16031.66015625	15434.61328125	15548.357421875	13859.4150390625	14306.642578125	13960.2255859375	14698.455078125	16929.22265625	14895.626953125	16174.669921875
2100	2400	15675.52734375	15034.1533203125	10321.0419921875	12180.1884765625	10658.1982421875	13762.8818359375	15273.685546875	12361.1962890625	12446.8427734375	13598.267578125	9023.22265625	11499.8759765625	13822.373046875	9762.6171875	15563.4931640625	15072.4765625	10375.556640625	12083.93359375	10940.3134765625	14464.443359375	15712.814453125	12283.986328125	12523.0888671875	12444.5625	14077.8984375	9956.388671875	7545.74755859375	7285.06640625	10597.8857421875	14923.2666015625	10765.6689453125	8352.072265625	15227.8115234375	14922.658203125	14200.7421875	14131.296875	12612.2294921875	14908.6435546875	13003.6875	14711.7158203125	13868.6552734375	12962.0625	14757.9990234375	14269.0283203125	13751.1337890625	12932.6611328125	13033.5126953125	12869.861328125	14179.6435546875	13668.009765625	13864.98828125	15064.2666015625	13293.126953125	14574.5107421875	13449.8251953125	14080.2236328125	14473.255859375	14131.3125	14229.2109375	12826.0009765625	13786.1337890625	13813.171875	13966.4189453125	14353.02734375	15673.1005859375	15030.7607421875	14506.7314453125	14923.796875	13747.248046875	14912.814453125	11575.6865234375	14411.2724609375	13285.4794921875	14328.935546875	13541.6943359375	13484.71484375	15325.2470703125	14529.9375	14716.9375	13673.5146484375	12985.6708984375	13484.9638671875	13581.69921875	12821.1337890625	13505.3955078125	15710.8388671875	12916.8037109375	15146.1884765625	13240.265625	13978.6982421875	15409.3046875	14213.3310546875	14358.9697265625	13010.2861328125	13423.7509765625	13278.255859375	13953.38671875	15619.7109375	13882.9462890625	14697.9541015625
2400	2700	14686.8876953125	13231.853515625	9431.947265625	10267.8623046875	9473.0185546875	12390.3681640625	14074.3583984375	11377.962890625	11030.64453125	11785.548828125	8550.623046875	9720.53515625	11861.75390625	9130.3212890625	14531.5458984375	13187.4873046875	9186.4189453125	10755.3984375	9717.087890625	12603.1279296875	13537.3818359375	10716.1357421875	9981.123046875	9636.94140625	12738.59375	9593.341796875	7257.32080078125	7095.91357421875	9617.7353515625	13751.2451171875	10075.2431640625	8187.59326171875	13837.8271484375	13521.9462890625	13231.5693359375	12954.7109375	11509.6416015625	14180.3212890625	12062.2001953125	13607.7021484375	12527.494140625	12070.2197265625	13288.244140625	13667.7646484375	13092.9677734375	12018.2919921875	12638.6953125	12240.2890625	13265.763671875	12491.9716796875	12782.685546875	14341.205078125	12506.48046875	13609.3779296875	12731.4267578125	13005.8798828125	13006.748046875	13174.8857421875	13311.9892578125	12014.015625	12794.58203125	13161.73046875	13299.021484375	13485.4619140625	14013.3193359375	13856.8056640625	13341.14453125	13113.6669921875	12645.1552734375	13496.1142578125	9943.56640625	13559.8203125	12608.4931640625	13241.5009765625	12606.47265625	12846.943359375	14039.0068359375	13427.451171875	13440.8046875	12740.3330078125	11727.857421875	12364.173828125	12706.05078125	11900.0947265625	12302.400390625	14782.2783203125	12180.798828125	13831.0029296875	12433.708984375	12913.4560546875	13761.5087890625	13202.162109375	13477.201171875	12057.8330078125	12358.71875	12359.9091796875	12901.728515625	14028.2548828125	13115.0556640625	13544.66796875
