frame_start	frame_end	parasubiculum	HATA	fimbria	hippocampal_fissure	HP_tail	presubiculum-head	presubiculum-body	subiculum-head	subiculum-body	CA1-head	CA1-body	CA3-head	CA3-body	CA4-head	CA4-body	GC-ML-DG-head	GC-ML-DG-body	molecular_layer_HP-head	molecular_layer_HP-body	Lateral-nucleus	Basal-nucleus	Central-nucleus	Medial-nucleus	Cortical-nucleus	Accessory-Basal-nucleus	Corticoamygdaloid-transitio	Anterior-amygdaloid-area-AAA	Paralaminar-nucleus
0	30	0.83383	20.20058	7.06994	2.55106	0.56022	2.63168	1.66938	4.35197	2.54057	9.9928	3.26503	11.67655	5.01601	5.05384	5.46607	5.2859	4.53478	6.62268	4.29014	5.16018	4.06231	5.81947	7.12795	6.24505	3.95846	3.59325	0.2114	0.56965
30	60	1262.62932	986.14447	2141.93162	1393.95218	1362.40269	1272.66192	2756.43473	1201.26265	1487.34303	1036.15842	812.58452	1093.73819	1497.81219	1296.26848	1536.15601	1254.85597	1611.48656	1126.65696	1505.86402	728.59366	1146.25914	1144.5859	1127.65188	1140.76591	1323.79088	1434.64185	1779.59689	978.70312
60	90	6194.09214	4957.07158	7176.69525	6492.79926	7189.66218	5439.0501	6429.48133	5684.425	6601.2755	5874.71712	5790.59574	7670.40573	7905.68598	6567.61707	7892.15864	6351.92299	7554.09187	6070.51543	7267.56599	5065.57805	5778.14388	6113.9402	5003.13677	4912.73674	5455.41751	5933.66303	8883.2911	5887.66664
90	120	15394.89405	12585.30622	17801.42284	15537.89333	15493.5771	15271.01984	15094.91227	14802.35945	16121.62907	12991.02429	11686.32717	17631.39066	17373.91031	14522.63051	17268.9711	14200.43107	16039.71171	14260.86247	15470.79368	12648.92311	14957.38509	14005.50379	12273.56044	12389.98734	14204.18397	12995.77148	14195.25205	15092.78891
120	150	20136.01903	19994.06318	24911.15603	24142.33863	23881.09108	21853.9566	25317.41269	24371.45619	26420.33989	22934.87918	18389.05203	28906.35856	24532.02879	27855.45415	25063.40935	25910.73884	24344.74766	25007.45098	23683.23239	22714.95323	26396.87364	26604.37305	23663.80968	22139.68005	23503.17789	20531.1688	23959.11309	24700.61615
150	180	22222.02478	28512.78312	33290.04024	28636.4979	28996.11298	27769.59737	28689.4875	30210.68504	31580.97067	26736.22193	25591.21289	27851.3225	29866.55896	26709.94203	31474.08929	26865.40899	31592.02561	28826.93353	30284.00499	25403.11859	27748.64354	28455.2648	28371.34505	28863.39709	30833.14648	28038.33816	28445.68086	25270.49607
180	240	22968.69488	22355.31485	30948.86699	28658.08225	29997.69373	26485.4549	27282.54819	29172.10958	30682.38538	27512.07248	25353.86789	29550.67829	31782.46642	30677.04061	32654.49431	28906.88812	31447.41999	29858.88423	30041.27943	28502.08472	29708.81327	26808.25566	23529.23459	22238.95312	27311.94592	24317.76722	26223.46855	28114.36471
240	300	19742.1713	26137.20765	30730.45373	29269.6225	29641.11152	25763.20062	27254.76493	31604.26077	32251.76752	27643.92962	24565.50568	28656.95725	28243.06023	31149.10662	30681.70817	29571.96656	30322.60003	30721.18012	28761.22598	28059.37235	28848.68584	31842.83402	27706.99414	26376.75116	29294.63132	25540.75223	26482.71694	26487.87153
300	360	21288.94154	23660.63302	29223.99043	27617.54587	26594.80122	25057.13759	25211.63812	29663.36347	30082.26496	27534.46315	24656.40603	25522.64901	27903.16158	28831.85486	30631.58567	27784.99461	30056.41456	28868.35163	28463.45296	30900.51207	28614.51315	27497.69789	23382.84049	23443.58362	26460.89701	22846.49436	26822.63735	25519.08678
360	480	18856.47906	21997.90117	26333.31706	25952.1123	24222.6109	25005.55314	23048.88647	27164.58559	27080.91536	25286.92894	22533.13547	25816.17047	25841.20799	28246.57186	27543.88482	26730.31708	27142.09281	27352.87073	25877.64783	27170.65397	26803.12121	25910.16395	24541.19531	24808.41162	27005.86085	23118.90591	26281.14321	23926.9258
480	600	17079.19953	21621.15798	23343.64844	23221.63453	21754.76493	22779.13955	21062.75384	26217.24939	23692.67021	22708.67064	19725.64207	22696.79698	21369.30806	24290.22823	23409.50776	23117.97397	23014.48058	24803.742	21921.89416	25741.69975	24605.98591	24070.29578	21984.11892	21271.28125	24101.78622	21255.51979	23171.47041	23223.28513
600	900	14374.92957	16641.91831	18997.7766	19570.65727	17785.19284	17955.09731	18500.20077	21657.57163	20643.12163	19919.86777	17772.94158	19273.94341	18020.81516	21073.32563	19686.08421	20087.15402	19724.0373	20923.79233	19117.08822	22122.86337	21398.32275	19661.36117	18831.7806	18655.16339	19148.60683	17287.03982	20702.02832	19304.12867
900	1200	12474.7934	15195.71956	16276.01624	15883.43663	15159.42502	14994.64632	14864.39936	17464.52635	17067.39079	16087.65218	14922.22381	14813.40507	15538.67663	16053.06141	16686.72785	15874.20683	16709.20055	16557.29835	15965.94921	18315.24689	17338.69921	17590.11123	17144.20855	16805.15408	17115.14823	15277.3099	15638.48828	15946.0888
1200	1500	11048.81189	13615.65972	14669.05938	13729.35712	12959.04339	13590.68583	13812.87747	14709.7171	14720.09871	13563.72317	13111.08517	13542.89204	14032.98092	13875.01808	13988.58242	13625.29992	14110.36865	13855.76041	13841.238	15591.55234	14789.40253	15279.59336	14996.18631	14625.18011	14995.1626	13588.21575	14226.91543	13468.37619
1500	1800	9823.60102	11689.15137	12173.35495	11872.55398	11197.23949	12069.74749	12230.14035	12795.18697	12916.91749	12093.28094	11675.56643	11829.12748	11663.38015	11639.37755	11649.13918	11664.81657	11968.09718	12190.16648	11924.98558	14453.72866	12842.64487	12759.83988	13173.8457	13599.46481	12013.56006	11295.89095	12315.79907	11908.84776
1800	2100	8916.25433	10966.42703	11152.89229	10745.61557	10375.69217	10978.83057	11016.38009	11559.25495	11188.20142	10370.83245	10680.55431	9941.19272	10787.67523	10210.32668	10468.89354	10371.43015	10545.55093	10392.08385	10488.08337	12290.95676	10957.41786	11653.08158	11617.40072	11529.9624	10713.90932	10487.23364	11150.84934	9779.04605
2100	2400	9376.82282	11348.07588	10565.96019	9630.75778	9980.40131	10121.13991	9800.14075	10539.47585	9806.47736	9935.56039	9165.26207	9898.8609	10626.2555	9482.57489	9655.68369	9754.94728	9668.2892	9849.26489	9688.16924	10868.28296	9581.88316	11428.30846	11485.15582	11175.74567	10235.65754	9852.12047	9770.03599	8880.39286
2400	2700	7284.99901	10190.08481	9287.08853	8028.05184	8660.22456	7811.07203	8270.49252	9327.29666	8539.65821	9248.35026	8961.80944	8629.97993	9476.54119	7976.31838	8187.62026	8171.26998	8314.81616	8731.10703	8583.63457	10011.37582	7936.7132	10614.43693	11066.40137	11353.97	8870.25072	8736.67752	7236.47859	7973.27512
2700	3000	7149.33581	9358.00312	9790.69206	7355.09994	9164.94203	7503.21358	7001.00049	8139.66427	7512.66209	8260.04771	8301.91098	8039.25085	9792.71544	7322.84425	8097.04226	7494.20185	8040.07546	7659.59097	8047.45421	10183.92498	8564.1539	10279.14045	9942.34516	10073.30872	8560.16263	8311.443	7685.65975	8430.1114
3000	3300	7745.9124	8204.23564	8570.72384	7589.95124	8411.66223	8156.87874	7342.10941	8352.87845	8125.53712	7877.41872	7713.61574	8471.48558	9469.73374	7282.74397	8460.68273	7416.58446	8229.05939	7980.73804	8101.12636	8518.7043	7872.90419	9945.05057	9994.3355	9516.61031	8475.57935	7949.43284	9034.91389	7419.32924
3300	3600	8975.02066	6874.80547	8391.06645	7443.4172	7788.42017	7996.43531	6289.28222	7872.80477	7284.33768	7714.49271	7650.61889	7084.3232	9398.13158	7678.67207	7817.06868	7629.38756	7575.26899	7657.22364	7690.66063	7496.45765	7959.69975	9924.00811	9147.01172	8505.22011	8242.40048	6854.18582	7460.73947	7559.83236
3600	3900	5651.97923	8025.3724	7097.35062	6114.74656	7038.12836	5830.05103	6629.24542	6939.90091	6077.1041	7008.55005	7402.4398	7926.54423	7749.55315	6747.21035	6229.11968	6829.17769	6313.32795	6705.15295	6790.65827	9721.98659	6361.83371	10578.51908	9577.60514	8819.39558	7183.01488	6623.02955	8278.68108	5659.68655
3900	4200	4155.24246	7856.97417	6736.12823	5544.29259	7042.83276	4662.58838	5814.38026	6497.48884	5903.22484	6912.14804	7867.23071	7424.88361	8981.18223	6057.73441	6822.86164	5913.84948	6545.78777	6431.56261	6996.58219	8193.97297	6411.63053	8203.36812	7151.03825	7261.7598	5962.52505	6204.22341	6782.27827	6387.15749
4200	4500	5142.22538	5395.96238	7059.95358	6296.87303	6061.35958	6083.80926	5292.75876	6382.32455	7025.23547	6463.37014	8010.01448	6733.02072	8607.22076	6426.56653	7625.1556	6490.58845	7578.2213	6535.36487	7656.90035	7647.44021	6243.82438	7271.93703	6427.10113	6162.39848	5351.54855	4915.49941	6986.29594	5551.36585
4500	4800	5436.19346	7255.07348	7217.48569	6625.31872	5680.46781	5588.87434	6374.85855	6526.78092	6617.19296	6240.35943	6847.14133	6026.13376	6635.6534	5933.9109	6562.54041	6097.69196	6521.99988	6194.59236	6363.37279	5548.37954	5476.88798	7102.5085	6356.38976	7020.56773	6446.94492	6219.6093	5661.02633	5187.73605
4800	5100	6974.14482	5320.92953	7159.51274	6731.43024	5058.38983	7058.86729	6223.1172	6830.2103	6030.75993	7004.82438	6508.52909	6279.41616	6922.57678	6446.93264	5649.06571	6487.67741	5690.89915	6973.8011	6249.94292	7063.95455	6415.77653	4959.89097	5480.82205	5524.91488	4613.75239	4883.93149	5740.91776	8696.04761
5100	5400	4567.11439	5837.99672	5168.19051	5097.39402	5222.56379	4690.46546	5579.44877	5484.30906	5914.25706	5950.47738	5614.44304	6632.81075	5338.17048	5105.37735	5176.3852	5291.78843	5313.80012	5430.13491	5451.07878	7215.38589	5373.96141	5119.19411	5823.02224	6168.60402	5928.3485	5693.33959	4567.60378	5610.50303
