frame_start	frame_end	Left-Cerebral-White-Matter	Left-Cerebellum-White-Matter	Left-Cerebellum-Cortex	Left-Thalamus	Left-Caudate	Left-Putamen	Left-Pallidum	Brain-Stem	Left-Hippocampus	Left-Amygdala	CSF	Left-Accumbens-area	Left-VentralDC	Left-choroid-plexus	Right-Cerebral-White-Matter	Right-Cerebellum-White-Matter	Right-Cerebellum-Cortex	Right-Thalamus	Right-Caudate	Right-Putamen	Right-Pallidum	Right-Hippocampus	Right-Amygdala	Right-Accumbens-area	Right-VentralDC	Right-choroid-plexus	AirCavity	Skull	Vermis	Pons	CSF-ExtraCerebral	Head-ExtraCerebral	ctx-lh-bankssts	ctx-lh-caudalanteriorcingulate	ctx-lh-caudalmiddlefrontal	ctx-lh-cuneus	ctx-lh-entorhinal	ctx-lh-fusiform	ctx-lh-inferiorparietal	ctx-lh-inferiortemporal	ctx-lh-isthmuscingulate	ctx-lh-lateraloccipital	ctx-lh-lateralorbitofrontal	ctx-lh-lingual	ctx-lh-medialorbitofrontal	ctx-lh-middletemporal	ctx-lh-parahippocampal	ctx-lh-paracentral	ctx-lh-parsopercularis	ctx-lh-parsorbitalis	ctx-lh-parstriangularis	ctx-lh-pericalcarine	ctx-lh-postcentral	ctx-lh-posteriorcingulate	ctx-lh-precentral	ctx-lh-precuneus	ctx-lh-rostralanteriorcingulate	ctx-lh-rostralmiddlefrontal	ctx-lh-superiorfrontal	ctx-lh-superiorparietal	ctx-lh-superiortemporal	ctx-lh-supramarginal	ctx-lh-frontalpole	ctx-lh-temporalpole	ctx-lh-transversetemporal	ctx-lh-insula	ctx-rh-bankssts	ctx-rh-caudalanteriorcingulate	ctx-rh-caudalmiddlefrontal	ctx-rh-cuneus	ctx-rh-entorhinal	ctx-rh-fusiform	ctx-rh-inferiorparietal	ctx-rh-inferiortemporal	ctx-rh-isthmuscingulate	ctx-rh-lateraloccipital	ctx-rh-lateralorbitofrontal	ctx-rh-lingual	ctx-rh-medialorbitofrontal	ctx-rh-middletemporal	ctx-rh-parahippocampal	ctx-rh-paracentral	ctx-rh-parsopercularis	ctx-rh-parsorbitalis	ctx-rh-parstriangularis	ctx-rh-pericalcarine	ctx-rh-postcentral	ctx-rh-posteriorcingulate	ctx-rh-precentral	ctx-rh-precuneus	ctx-rh-rostralanteriorcingulate	ctx-rh-rostralmiddlefrontal	ctx-rh-superiorfrontal	ctx-rh-superiorparietal	ctx-rh-superiortemporal	ctx-rh-supramarginal	ctx-rh-frontalpole	ctx-rh-temporalpole	ctx-rh-transversetemporal	ctx-rh-insula
0	30	5.443717002868652	5.237062454223633	3.0329244136810303	-1.7552695274353027	-0.27200043201446533	10.461983680725098	-0.3893236517906189	9.801101684570312	10.521886825561523	6.1366143226623535	0.8430471420288086	8.408119201660156	21.813507080078125	-58.05791091918945	6.694036960601807	15.51585578918457	7.9492692947387695	11.504051208496094	-2.9172894954681396	29.139806747436523	14.272367477416992	-1.8236104249954224	1.2740670442581177	-2.745306968688965	-3.6421399116516113	-49.22449493408203	7.43251371383667	6.657496452331543	-10.585935592651367	20.48161506652832	5.230513095855713	10.37926959991455	-12.029502868652344	-3.1171047687530518	6.942074298858643	18.505752563476562	20.97323226928711	5.131067752838135	-0.4099405109882355	4.726290702819824	3.182215690612793	0.854180634021759	-0.8284642100334167	24.13050079345703	4.496066093444824	7.406731128692627	0.7191466689109802	-9.313941955566406	-0.6734739542007446	-13.217338562011719	18.195810317993164	6.239693641662598	21.5643367767334	2.7824981212615967	2.0053508281707764	3.821702003479004	5.604150295257568	-0.10178006440401077	-2.5146801471710205	-0.45162296295166016	20.948875427246094	-0.7394391298294067	-10.63179874420166	6.432178974151611	-12.010047912597656	-4.879152774810791	-17.48158073425293	34.13478088378906	1.8513178825378418	11.94149112701416	-9.033784866333008	2.503865957260132	8.733595848083496	15.073596954345703	-9.540547370910645	27.17426872253418	-0.6146332025527954	4.100327968597412	-2.2170498371124268	8.130460739135742	59.83709716796875	-6.799469470977783	4.1537652015686035	1.2667133808135986	-4.164799690246582	19.921396255493164	6.260644912719727	1.0827997922897339	-2.8366010189056396	-0.6365654468536377	-0.5132578015327454	-3.742579221725464	0.38151800632476807	5.866454124450684	39.166996002197266	-11.450654983520508	-8.609445571899414	10.136226654052734	58.72782897949219	2.0591671466827393
30	60	446.6171875	657.3598022460938	1681.85791015625	1691.8504638671875	1950.6595458984375	2319.541259765625	913.7466430664062	1429.34912109375	1776.143798828125	895.4948120117188	275.6957702636719	1806.4815673828125	1332.702392578125	1365.747314453125	367.5550231933594	958.2349853515625	1428.866455078125	1793.2489013671875	2682.560546875	2308.84375	211.15792846679688	1544.7330322265625	1464.156494140625	2568.843994140625	1294.55322265625	4721.75927734375	226.5676727294922	259.144287109375	2084.15625	959.9194946289062	1178.4111328125	480.75384521484375	2314.042236328125	2107.584716796875	2644.599365234375	2071.409423828125	2155.886962890625	1252.5555419921875	2280.59375	2036.1068115234375	2711.146484375	1948.3671875	2365.404052734375	2606.064697265625	3064.365234375	1673.9666748046875	2458.896484375	1675.182861328125	3002.044677734375	1502.028564453125	3028.423828125	4479.1572265625	2227.721923828125	2749.288818359375	2287.9521484375	2811.727783203125	1576.253173828125	2553.911376953125	2243.77880859375	1686.5286865234375	2065.6162109375	2486.455078125	3330.203125	831.76123046875	3473.355224609375	2737.66015625	2112.808349609375	2919.812744140625	2040.7864990234375	4170.896484375	3489.09814453125	1765.1468505859375	2428.739013671875	1628.4849853515625	1684.2003173828125	1931.6541748046875	2864.76513671875	2320.804931640625	3046.428955078125	1791.6370849609375	1328.328369140625	2272.698974609375	2744.73583984375	1901.4879150390625	2724.375732421875	3934.2685546875	2272.173828125	2722.380615234375	2166.497314453125	2643.129150390625	2716.0322265625	2452.0234375	2498.5927734375	1759.88134765625	2420.711181640625	2140.883056640625	3156.42724609375	1943.8111572265625	2438.763916015625	2292.96337890625
60	90	2294.427001953125	5290.6962890625	8859.5498046875	10758.6357421875	13388.9677734375	13583.703125	5036.5224609375	7791.86376953125	8469.5625	5126.92333984375	2934.234619140625	15385.5732421875	6725.67431640625	26111.11328125	2320.429443359375	4505.39013671875	8817.3251953125	10915.294921875	12198.8046875	13543.150390625	3885.2626953125	9836.158203125	4483.04541015625	8941.54296875	5860.240234375	14297.662109375	1098.096435546875	1183.2781982421875	8498.1513671875	7125.24853515625	4570.4501953125	2069.994384765625	13835.4541015625	8472.0810546875	15817.05078125	18684.033203125	8728.455078125	8815.541015625	12871.3583984375	10968.55859375	12172.6064453125	13043.6591796875	13604.04296875	15493.8115234375	13553.14453125	11105.578125	6533.49267578125	11615.169921875	15882.0576171875	11582.630859375	16551.80078125	24625.021484375	14066.4794921875	13238.6337890625	13023.4287109375	14357.2236328125	13368.6875	15684.6171875	14170.1181640625	11604.8837890625	11307.0185546875	13247.7734375	17409.26953125	7132.76416015625	18810.755859375	11516.68359375	14103.1630859375	13701.7880859375	13898.2470703125	17118.314453125	11492.033203125	9279.5400390625	13955.552734375	10098.8359375	14017.4580078125	13293.59765625	14422.7392578125	15421.0859375	14918.39453125	11709.2900390625	7161.7998046875	13535.3876953125	15915.19921875	12435.810546875	16110.6435546875	25727.81640625	13588.8544921875	15060.0458984375	13307.8837890625	15808.8603515625	12793.033203125	14628.9873046875	13901.4208984375	11646.265625	11765.787109375	12966.982421875	22232.962890625	7421.01171875	19672.72265625	10724.4755859375
90	120	4938.822265625	10989.4375	20667.876953125	22490.2421875	31988.5	29661.4921875	9926.84765625	15521.443359375	19483.326171875	14560.767578125	6647.79345703125	24161.869140625	17157.556640625	34460.10546875	5065.6962890625	11574.8486328125	19885.2890625	25211.6875	28940.65625	29504.314453125	9698.8525390625	19149.033203125	14994.4541015625	16036.4169921875	16064.2587890625	30870.791015625	2054.918701171875	2734.859619140625	16987.763671875	16968.546875	8113.93212890625	4683.888671875	30998.849609375	19090.119140625	37543.125	39224.1796875	20317.28515625	20994.962890625	29614.146484375	24609.1015625	28909.505859375	29277.603515625	32084.21484375	34729.69921875	30393.6328125	25762.419921875	20321.0	26296.76171875	36209.2578125	27910.91015625	36953.45703125	61409.51953125	32002.66796875	28716.33984375	30919.044921875	34293.984375	27673.111328125	35027.8515625	31705.8359375	27561.333984375	25692.30078125	29668.693359375	45081.95703125	17036.79296875	41949.01171875	25133.298828125	27702.8515625	23667.7578125	32393.31640625	40185.3515625	23557.98046875	20345.802734375	31064.927734375	24902.677734375	28871.95703125	32373.1015625	32120.685546875	33019.18359375	29423.697265625	25074.380859375	19590.029296875	30395.189453125	33566.96484375	27692.068359375	36213.3828125	51566.13671875	31162.2265625	32036.21875	32187.05859375	33267.87109375	28393.138671875	34187.640625	31544.767578125	30971.126953125	27395.84375	30897.052734375	43111.38671875	15450.78125	45299.5625	19414.0390625
120	150	8247.8232421875	20209.099609375	35193.640625	39369.0390625	51882.4296875	50288.99609375	16330.91015625	27985.55078125	31589.05859375	27161.740234375	11085.5537109375	45584.74609375	24633.193359375	60883.30859375	8168.763671875	20331.3125	34427.12890625	42370.84375	49110.1796875	50735.96875	17563.380859375	31614.99609375	22740.31640625	25060.9609375	27287.736328125	42124.22265625	3202.065673828125	4597.17236328125	30048.912109375	29428.392578125	10340.6484375	7685.39013671875	53023.578125	35224.52734375	64390.82421875	64953.4453125	31938.099609375	35220.22265625	51025.828125	43551.2578125	54314.45703125	51356.37109375	52088.44921875	60467.80859375	50818.92578125	44098.1875	31482.458984375	47607.15234375	61602.84765625	49006.73046875	60780.69921875	103358.0859375	55856.0625	56521.1484375	55290.15234375	57621.82421875	45832.8515625	60483.1875	55439.41796875	52061.85546875	43900.1328125	50740.6640625	79397.046875	31816.98046875	74312.859375	36235.82421875	51362.73828125	42432.703125	60899.46875	70837.3515625	34103.2578125	34889.0625	54755.109375	43722.0234375	52869.203125	54895.11328125	51912.0625	59130.4375	49938.48046875	45360.05078125	34036.34765625	51696.58984375	55656.03515625	45304.3515625	63665.29296875	94553.1875	54822.3203125	53994.80859375	54770.7109375	56481.65625	45264.00390625	59553.41015625	55093.6015625	54987.6796875	45065.7734375	51617.12890625	77861.59375	33089.66015625	78642.2890625	35437.9921875
150	180	10171.4990234375	23653.109375	40960.44140625	45776.171875	61874.1484375	62545.0625	20199.203125	30092.453125	35758.38671875	30962.939453125	9689.5419921875	43156.6328125	33675.25	77180.6015625	10153.130859375	22697.478515625	41535.87109375	49399.01953125	59798.21484375	63120.28515625	17214.998046875	38668.29296875	25360.126953125	24924.93359375	30774.865234375	73382.109375	3076.96630859375	5347.77587890625	41497.20703125	36127.12890625	8590.859375	9136.4130859375	60380.921875	42540.015625	76513.4921875	80081.953125	36615.05859375	44011.48046875	61556.921875	50048.1328125	61864.9140625	62136.90625	60343.4453125	71283.9375	56292.71875	53308.125	37331.3046875	59594.20703125	71121.546875	54325.5	74355.421875	115558.4375	66073.78125	59139.19140625	65808.7265625	68382.109375	56276.5234375	72110.5	66024.921875	64058.40234375	52579.75	60969.546875	90849.8671875	39075.21875	81543.3046875	40994.87890625	61385.484375	46409.07421875	69926.171875	80919.7421875	36332.984375	44535.48046875	65686.8671875	50491.10546875	63897.0703125	67651.21875	59467.5078125	66417.0	57378.1484375	54983.12890625	35086.3359375	65555.75	64172.03125	54039.09375	73486.1328125	108590.5234375	63939.89453125	64840.58203125	65552.0625	67564.2734375	47134.34375	71064.2578125	65342.9765625	67436.8671875	54649.08984375	61639.69921875	94400.046875	36063.90625	88892.7734375	38409.96484375
180	240	10473.337890625	25605.30859375	42321.05078125	49400.5234375	66600.859375	64149.6328125	23063.1328125	30730.04296875	36131.19140625	32294.9375	10070.751953125	50588.26171875	32557.40234375	60732.30078125	10502.62109375	24064.76953125	42510.79296875	52560.87890625	64299.6484375	65851.3984375	21261.84765625	39265.51953125	29725.234375	27631.302734375	29355.5	44651.015625	2751.59765625	5657.3740234375	36499.3515625	36841.41796875	6944.46923828125	9860.55078125	61978.3125	42582.6015625	78921.25	80333.375	37586.3984375	47267.4140625	65870.40625	52115.45703125	62026.265625	66411.2734375	60314.36328125	72437.78125	63092.96484375	55192.5234375	38592.27734375	59016.9140625	71324.15625	60497.17578125	75147.765625	124308.140625	69376.8046875	59886.9140625	67869.4140625	70027.515625	56926.0390625	74263.96875	68898.7109375	67747.9609375	54391.19921875	62916.04296875	88343.921875	41309.07421875	79018.3515625	42130.140625	64899.34375	49418.9375	74107.578125	83575.8359375	31630.828125	45666.0234375	69843.8125	52662.08984375	62318.79296875	72308.2578125	60683.703125	68721.1796875	58847.171875	56787.4609375	40848.30078125	68131.4921875	66657.359375	55532.82421875	73110.15625	108157.5234375	69832.203125	65084.92578125	67615.25	69555.0546875	49468.0546875	74691.359375	68008.4140625	71750.53125	54918.37109375	64333.9140625	97488.3125	42698.41796875	90465.2890625	40447.61328125
240	300	10880.5654296875	25629.279296875	41388.3515625	47973.48046875	65155.78125	65069.5234375	21408.818359375	29887.3515625	36202.59765625	33984.8671875	7892.841796875	49116.8515625	31737.904296875	58319.96484375	11142.4208984375	23671.98828125	41511.92578125	50557.61328125	62626.09765625	64757.69921875	20908.97265625	37624.3046875	34060.20703125	32313.96484375	31146.3515625	45374.13671875	2487.818115234375	5808.63623046875	37098.3984375	36056.546875	5061.38916015625	9970.6591796875	58962.5234375	41863.5625	73447.7265625	77233.2578125	34169.8203125	46143.14453125	62453.73828125	51092.44921875	57719.03125	63525.828125	59371.92578125	68886.1640625	58262.66796875	54738.05859375	38555.91796875	59061.69140625	68123.328125	57882.125	72741.3828125	112899.8671875	68055.7265625	59577.37109375	67088.625	66988.3203125	57577.8046875	71628.09375	66458.671875	66951.3359375	52804.91796875	61645.12109375	87114.53125	41615.71484375	75737.0703125	42172.48828125	61795.92578125	47671.95703125	71402.171875	78472.203125	30470.328125	44128.1328125	67760.7265625	53391.828125	61138.625	69941.4375	59615.52734375	63937.9921875	57128.57421875	54913.38671875	40497.66796875	63555.0625	63728.41015625	58297.57421875	70471.765625	103759.546875	65851.921875	62225.6015625	67224.2265625	66568.8515625	51767.94140625	72170.2734375	64961.1484375	70845.5546875	54097.46484375	62441.22265625	94367.375	43516.4140625	82290.578125	39362.55078125
300	360	11550.2109375	25212.283203125	38436.18359375	45379.1953125	61482.59375	60310.83203125	23102.962890625	29562.673828125	33408.14453125	35228.64453125	6451.92236328125	46740.75	30612.01953125	47747.390625	11678.3017578125	24345.923828125	39227.45703125	49879.39453125	60886.625	60469.96484375	22770.501953125	34988.984375	29640.8359375	28850.181640625	30678.560546875	39242.3046875	2199.70263671875	6105.5859375	37158.015625	33872.0703125	4592.00244140625	9892.9970703125	50806.99609375	37847.25	68468.125	70129.4140625	35284.9296875	43931.05078125	58205.57421875	47270.3515625	53903.87109375	58787.0078125	53671.703125	63136.67578125	55465.96875	51296.41015625	33763.546875	57449.25390625	62665.7421875	52714.5546875	65729.984375	101407.90625	63426.9375	52440.796875	61619.20703125	61801.19921875	52340.859375	66391.8515625	61746.8671875	62640.50390625	50502.96875	56098.12890625	86079.0546875	39881.83203125	68002.3125	40223.4453125	55067.0	45984.7421875	65538.640625	74779.125	31010.181640625	42778.484375	61890.6328125	48201.2734375	52614.10546875	65387.8203125	54957.09375	59909.2890625	54190.76171875	53662.37890625	41547.546875	58481.55078125	57456.875	52515.73046875	63297.34765625	90532.640625	62212.1796875	56311.16796875	60424.3984375	60598.80859375	46262.90625	67409.484375	60457.03515625	65102.38671875	50929.87890625	57070.46875	87688.6015625	39596.1640625	75406.046875	38858.1640625
360	480	11573.3671875	24118.31640625	34873.9375	41785.50390625	53630.0	53117.6640625	21261.076171875	27548.9140625	30551.919921875	33207.265625	5632.54248046875	41630.65625	29952.28515625	22888.443359375	11941.3818359375	22453.552734375	35457.09765625	44756.19921875	50600.0859375	53333.20703125	21580.48046875	31520.630859375	29890.59765625	31500.490234375	28493.435546875	19036.67578125	2020.9249267578125	6139.74169921875	31049.84375	30113.859375	3352.87646484375	9746.03125	46695.609375	36893.93359375	60997.80859375	63851.640625	31117.3359375	40158.328125	51910.0546875	43297.7421875	45008.03125	51248.0390625	47994.875	55175.23046875	49960.6796875	46733.59375	34028.0546875	50992.51953125	54847.9140625	46890.94921875	58242.8359375	84335.3125	56773.87109375	46180.140625	53878.28125	54728.71484375	46349.95703125	58104.36328125	54385.90234375	55950.24609375	45623.65625	49549.46484375	74253.9140625	39698.734375	55329.85546875	38087.53125	50566.890625	38012.5234375	57601.31640625	63715.7109375	29113.72265625	40219.33203125	55345.75390625	44103.71875	49858.83203125	57767.1796875	49251.8125	52057.87890625	46911.15234375	47271.60546875	37884.92578125	52234.734375	50040.09375	46121.5703125	55206.7578125	74963.1796875	54955.125	50827.62890625	53342.76953125	53024.39453125	43558.5234375	58973.328125	53253.37109375	58868.2265625	45708.65234375	50749.2421875	75101.390625	38777.53515625	65277.96484375	35848.953125
480	600	11855.259765625	23439.291015625	30029.37890625	37332.48046875	45692.078125	46474.796875	24628.86328125	24383.9609375	26285.15625	31345.333984375	3564.0673828125	41447.78515625	28263.306640625	10856.6640625	12081.1259765625	21863.607421875	30480.638671875	40034.85546875	43543.46875	45962.40625	23685.6640625	28833.51171875	27247.7265625	27495.568359375	27287.208984375	17963.205078125	1760.318115234375	6279.53857421875	25928.505859375	28416.873046875	2551.181396484375	9493.98828125	39360.1484375	31857.021484375	49612.87890625	51371.46875	30693.1171875	35286.1875	43512.95703125	37689.5390625	39941.8515625	43551.5234375	40801.95703125	46072.234375	45268.08203125	40064.51953125	31450.39453125	44674.015625	44979.8203125	40648.328125	48773.12109375	68559.8984375	47475.40234375	39652.17578125	45999.34375	45738.08203125	39152.5	49216.58984375	46021.0390625	48224.484375	39998.79296875	42461.05078125	61784.7578125	33970.87109375	44962.8515625	34660.30078125	42503.8671875	32729.0234375	47579.09765625	52397.3515625	28055.904296875	35826.3359375	47186.48046875	38549.7109375	40871.80859375	47456.33203125	41912.51171875	43391.0234375	40587.6015625	40727.28125	31628.3984375	42511.96875	42367.2890625	39421.4609375	46118.2109375	60541.63671875	45798.1328125	43813.3984375	45313.23046875	45058.578125	36404.81640625	49437.7109375	45095.77734375	50023.1015625	40254.2734375	43115.8203125	64978.625	35903.79296875	48471.1171875	31797.798828125
600	900	12091.6337890625	21471.17578125	23643.7265625	30766.45703125	34212.65234375	35558.77734375	23825.279296875	21501.1484375	21398.978515625	26822.1875	1881.7247314453125	30873.5703125	25318.09375	10502.935546875	12498.8681640625	21245.298828125	23760.921875	32388.82421875	32722.146484375	35961.09375	22685.517578125	22785.345703125	25579.427734375	26563.609375	24215.46875	13108.857421875	1470.81787109375	6463.6650390625	21335.322265625	24645.58984375	1748.5765380859375	9114.01171875	30451.044921875	27463.130859375	37605.03515625	39577.67578125	26298.037109375	29476.318359375	33447.53125	30848.41015625	31607.984375	33041.390625	32241.171875	35892.44921875	34850.1171875	31108.9921875	25407.2421875	32877.51171875	34609.73046875	31949.39453125	38089.55859375	48414.94921875	37222.84375	31761.01953125	35424.21484375	34602.0703125	30386.55859375	38399.05859375	35968.83203125	37291.44921875	32291.95703125	32492.70703125	47539.25390625	30565.681640625	34933.0	29157.669921875	32553.46875	28352.49609375	35804.61328125	39388.23828125	23464.494140625	29278.36328125	36420.109375	31278.455078125	30666.93359375	36735.2421875	32400.634765625	34136.6796875	32121.390625	31846.99609375	27428.740234375	33826.6640625	32192.853515625	32152.765625	35254.2421875	43393.69921875	35989.69140625	33098.578125	34592.12109375	34048.734375	28494.373046875	38484.484375	34880.7421875	38740.625	31292.974609375	33708.3203125	48848.45703125	31489.291015625	35509.578125	27531.603515625
900	1200	12549.3984375	19766.453125	17501.33203125	23544.51171875	23824.080078125	25482.400390625	22731.744140625	18233.5625	16390.857421875	22462.185546875	1220.724365234375	22432.296875	22005.7890625	-1433.370849609375	12762.5205078125	18542.38671875	17867.56640625	25208.501953125	23157.837890625	25439.736328125	21512.009765625	17022.2265625	21349.908203125	19734.212890625	21645.4140625	8906.75	1256.3101806640625	6739.7646484375	16751.501953125	20962.1875	1425.6102294921875	8743.1064453125	22971.73046875	21389.1015625	28899.451171875	29506.48046875	23234.1171875	22648.244140625	25324.015625	24284.033203125	23817.703125	23919.79296875	24897.173828125	27027.11328125	27131.7734375	23808.251953125	21359.07421875	24078.419921875	25654.908203125	25156.80078125	28409.013671875	32113.63671875	27382.47265625	24646.900390625	26529.548828125	25209.91796875	23571.396484375	28874.33984375	26783.15625	28067.9921875	24965.681640625	23825.69921875	34820.4375	25538.802734375	27579.810546875	23149.53125	24666.216796875	22581.939453125	27126.173828125	28854.853515625	20782.900390625	23515.0703125	27046.814453125	24165.759765625	24428.8515625	27487.76953125	24963.4140625	25029.056640625	24028.380859375	24432.99609375	21930.9140625	25314.705078125	24658.58984375	25392.498046875	25849.505859375	30349.857421875	26176.208984375	24203.0546875	25271.681640625	26105.33984375	21837.66796875	28635.97265625	26302.43359375	28706.75390625	24312.73046875	24581.615234375	38662.08984375	26024.498046875	26619.9375	21591.759765625
1200	1500	12640.2119140625	18276.685546875	14126.5634765625	18999.828125	17936.587890625	19842.666015625	20646.654296875	15088.78515625	13664.8330078125	18574.2578125	281.1776123046875	15627.4931640625	19571.22265625	8330.2236328125	12917.638671875	17623.62109375	14213.56640625	19843.080078125	17666.279296875	19535.232421875	20407.458984375	13625.7890625	17251.92578125	11813.80859375	19632.017578125	13555.03515625	1274.952392578125	7028.6591796875	13045.8916015625	18556.06640625	1616.5472412109375	8591.8037109375	18006.779296875	18710.640625	22971.69921875	22972.564453125	17772.748046875	19684.716796875	20647.12890625	20395.82421875	19617.68359375	19789.134765625	20801.23046875	23563.025390625	22117.0078125	20204.4921875	17118.642578125	17780.64453125	20922.849609375	21792.9765625	24068.322265625	25835.52734375	21631.7734375	19700.134765625	21890.5390625	20688.736328125	19102.470703125	23619.12109375	21915.841796875	22505.82421875	20766.5625	19705.1484375	26500.9765625	21743.6953125	22596.5390625	20379.19140625	20579.591796875	18402.40234375	22499.853515625	23666.599609375	18040.822265625	19743.953125	22137.15625	20013.248046875	20167.02734375	22479.94921875	20838.85546875	21583.134765625	21013.53515625	19703.744140625	17490.4296875	20626.583984375	20799.326171875	21164.216796875	21380.134765625	23676.3125	21045.158203125	20601.109375	20210.302734375	21188.341796875	16890.6015625	23795.853515625	21459.02734375	23183.66015625	19988.65625	19924.005859375	29105.52734375	22106.232421875	21706.302734375	17366.91796875
1500	1800	12556.1396484375	16893.08203125	11713.5654296875	15757.2724609375	13906.419921875	16683.181640625	17787.5625	13083.8310546875	11320.8623046875	16360.2255859375	954.1142578125	9790.3935546875	16677.384765625	2792.10400390625	12733.7421875	16374.955078125	11703.26171875	16437.3828125	13111.8310546875	15500.05078125	19052.060546875	11388.76171875	14022.3232421875	7216.6220703125	17769.751953125	6210.435546875	1104.3392333984375	7430.63720703125	10947.2421875	16228.962890625	1784.639892578125	8532.0185546875	16035.8662109375	16523.796875	19722.48046875	19438.4765625	15955.884765625	17562.95703125	17643.525390625	18182.39453125	17050.978515625	16541.853515625	17659.60546875	20198.439453125	19325.087890625	17109.279296875	14510.341796875	15472.666015625	18100.0234375	19336.826171875	20534.443359375	21835.974609375	18597.48046875	18124.693359375	18008.82421875	18149.30078125	14912.67578125	20665.751953125	18925.5859375	19444.802734375	17669.31640625	17106.171875	23908.58984375	17736.76171875	19230.1171875	17617.908203125	17632.55078125	16677.9609375	19157.455078125	20411.470703125	14721.1591796875	16959.05078125	19107.732421875	17260.3046875	17649.01171875	19255.814453125	17468.00390625	19404.30859375	17727.48828125	17016.74609375	15866.1708984375	16841.689453125	17468.08203125	18246.458984375	18174.703125	20630.650390625	17790.111328125	17378.58984375	16876.314453125	18222.2109375	15391.572265625	20515.54296875	18327.255859375	19679.91015625	16646.71484375	17179.125	26635.068359375	18671.802734375	21447.212890625	15703.87109375
1800	2100	12164.1796875	16100.1328125	9459.552734375	13694.4619140625	11243.6923828125	13320.5791015625	17053.6328125	11307.912109375	9504.5146484375	13825.5615234375	623.5512084960938	9475.20703125	14630.365234375	11922.2958984375	12116.5576171875	15625.4658203125	9631.6259765625	13811.400390625	12393.3173828125	13569.9951171875	16025.5732421875	9470.2060546875	12039.361328125	9337.87890625	15165.9638671875	15334.185546875	1143.4224853515625	7131.49658203125	8837.837890625	15083.6689453125	1948.807861328125	8398.294921875	14488.1103515625	14188.65234375	18068.484375	18694.603515625	13964.578125	16200.0205078125	16336.5478515625	16485.4765625	15497.939453125	15276.8701171875	16027.728515625	18783.759765625	17583.01953125	15187.892578125	14066.123046875	12056.810546875	16674.42578125	18075.1015625	18590.00390625	20032.453125	17088.912109375	16010.056640625	16411.365234375	15785.4462890625	14348.6845703125	18821.873046875	15889.27734375	17609.2265625	16214.658203125	14949.7900390625	21239.248046875	16251.16796875	17156.126953125	15660.9599609375	16228.0458984375	14328.76171875	16931.095703125	17846.87109375	11653.0966796875	15213.9365234375	17505.267578125	14651.7412109375	16493.533203125	18740.140625	16301.66796875	17822.876953125	15639.21875	15418.482421875	14860.9609375	13322.0703125	16055.1708984375	15570.7119140625	16690.53515625	19000.02734375	16335.2275390625	15981.6328125	15545.09375	16523.435546875	12599.6943359375	18754.662109375	16139.6923828125	19157.3671875	16071.7158203125	15625.193359375	24734.142578125	16406.359375	19530.669921875	13744.146484375
2100	2400	11963.7138671875	14606.607421875	8512.2353515625	11681.177734375	9446.806640625	11764.791015625	16487.7578125	9958.0517578125	9261.8583984375	11958.6669921875	1200.9259033203125	5088.36669921875	13694.15625	1607.0960693359375	12042.724609375	14512.4052734375	8255.537109375	11575.935546875	10187.3349609375	11201.2294921875	15334.25390625	7808.134765625	10231.033203125	4050.96533203125	14167.1337890625	10762.1884765625	1033.64892578125	7420.84521484375	8393.2734375	13730.3115234375	1940.524658203125	8032.650390625	13180.4716796875	12309.3427734375	16469.6484375	16470.798828125	12734.939453125	16042.8466796875	14639.0908203125	15664.51171875	14895.7099609375	14155.69921875	15510.6376953125	18429.40625	15822.4560546875	13919.9580078125	9107.3271484375	11746.345703125	16129.298828125	17363.974609375	17894.240234375	18275.5390625	16026.8798828125	13616.51953125	14576.955078125	14718.6240234375	14168.0185546875	17279.0546875	14923.62890625	16217.63671875	14885.9521484375	13652.447265625	18690.169921875	14313.353515625	17641.28125	14011.7216796875	14003.3681640625	12830.255859375	15425.53515625	16525.66796875	10869.94921875	15037.5859375	16511.69140625	14009.0732421875	13969.2421875	17015.810546875	15616.2177734375	16664.6328125	14736.9453125	14284.5673828125	12944.822265625	11513.2685546875	14720.1513671875	15560.6982421875	15651.9951171875	18566.181640625	14752.046875	14692.353515625	13797.357421875	15470.578125	12464.845703125	16816.4921875	14548.798828125	16912.552734375	14445.4931640625	14500.0732421875	21331.15234375	13462.0556640625	16632.130859375	12798.6259765625
2400	2700	11645.712890625	13075.4814453125	7538.57958984375	10159.451171875	8226.859375	11104.119140625	14144.0966796875	9052.927734375	7503.40087890625	10202.3037109375	1695.1461181640625	2678.165771484375	12415.2548828125	1695.2313232421875	11743.6328125	13179.0146484375	7591.99365234375	10245.138671875	8402.087890625	10704.3046875	11707.974609375	7806.48046875	9236.8837890625	3812.392578125	12517.46484375	6780.39990234375	968.7096557617188	7400.212890625	7164.06884765625	12386.20703125	2015.802978515625	7876.6845703125	13091.6630859375	12497.0224609375	14369.8193359375	15812.87109375	11486.3896484375	14580.6494140625	13528.4541015625	14782.4384765625	13525.2646484375	12846.908203125	14867.3916015625	16758.638671875	15887.064453125	12867.0322265625	10338.4306640625	10473.8916015625	14878.3486328125	16711.1953125	16560.55859375	15358.1376953125	14554.2109375	12985.7509765625	13945.37890625	14243.716796875	12363.380859375	15926.0078125	13409.2265625	14521.220703125	13689.9814453125	12906.052734375	18861.4921875	12580.5537109375	15349.7587890625	12669.1748046875	13549.19140625	12977.6953125	13536.8779296875	16361.2490234375	9405.765625	13996.1533203125	15160.5888671875	13746.041015625	14157.462890625	15798.1240234375	14860.208984375	15590.2587890625	13573.7958984375	12819.498046875	11268.908203125	11315.4892578125	14295.9658203125	14595.1591796875	14470.013671875	15485.748046875	14018.8662109375	15079.9501953125	12331.0263671875	13910.2109375	10585.712890625	15182.1865234375	13494.546875	14923.603515625	13080.7353515625	13133.3134765625	21133.509765625	11352.4345703125	13988.380859375	11317.634765625
