frame_start	frame_end	parasubiculum	HATA	fimbria	hippocampal_fissure	HP_tail	presubiculum-head	presubiculum-body	subiculum-head	subiculum-body	CA1-head	CA1-body	CA3-head	CA3-body	CA4-head	CA4-body	GC-ML-DG-head	GC-ML-DG-body	molecular_layer_HP-head	molecular_layer_HP-body	Lateral-nucleus	Basal-nucleus	Central-nucleus	Medial-nucleus	Cortical-nucleus	Accessory-Basal-nucleus	Corticoamygdaloid-transitio	Paralaminar-nucleus
0	30	1.93171	0.42692	8.65183	5.27097	0.70648	0.77476	2.58163	1.33366	7.71888	1.37877	5.50546	0.52858	10.34629	0.16341	13.58781	0.21581	11.14495	1.3358	8.50301	5.8285	0.7194	4.41647	6.98779	3.18572	1.18375	0.45822	2.07531
30	60	1027.00439	519.86274	1417.59942	1429.69249	1176.50667	1067.85454	1653.50061	1035.46442	1423.10004	1036.4221	1394.76477	1133.71733	1736.02199	1323.90126	1503.90346	1197.64493	1489.99337	1159.2755	1558.80362	1242.70794	1671.2852	610.71269	810.7252	923.84987	983.25628	1118.3466	1634.53121
60	90	7326.6247	4057.69522	8858.66108	8267.61526	7530.3761	7322.34132	8509.13177	7086.37338	6917.64316	5937.37169	5386.18021	7968.87858	7688.28655	8007.45418	8051.14636	7303.27643	7699.72437	6909.44099	7243.6971	5018.10259	5887.92627	4132.76518	4690.80978	5510.58827	4951.50495	5594.98787	5961.37604
90	120	13912.34704	12440.17476	16270.32682	15589.09224	16916.85301	16069.29478	14524.45865	13675.77745	13702.59332	14106.52445	13842.46499	17777.922	15324.08915	17638.71489	15760.5814	16673.1846	15647.65374	15746.70904	14943.37028	11850.90202	14534.26058	15727.60783	14381.73061	13481.72622	15563.96942	13819.27125	13514.90407
120	150	21009.09654	19995.08839	29625.50817	27535.28485	22908.0312	24552.7391	27999.64405	24051.79029	26213.82686	22954.23272	21140.79874	28436.22781	26133.40176	27536.22506	28273.55711	26038.2349	27740.64001	25221.95242	26197.26388	20188.1973	24060.82895	24223.99314	20728.86635	18750.98851	24155.5088	19878.58156	20950.88263
150	180	24075.01568	21626.58689	35569.58423	32196.45326	27822.00837	27858.60695	29946.03256	30372.94101	31432.4131	25640.34369	30584.71493	29638.83616	33340.47424	29728.39397	35048.85866	28532.85208	34579.32122	28814.70807	33039.26258	26455.71447	26124.26519	25964.24247	23087.98382	21600.76067	22871.89365	20584.97797	25338.04322
180	240	24665.4421	20562.65476	32397.92084	31925.57385	31727.54168	28904.60391	29488.60948	31140.99664	33310.4585	27186.23784	29130.31173	29838.63669	30040.92442	30347.88937	33278.69968	28843.46975	32989.55397	30251.38022	31958.66356	28548.12544	29035.08209	26844.84461	24599.99833	23429.99715	26777.17326	22083.88985	26713.76905
240	300	23322.40243	23416.08557	31131.37424	31043.51565	28732.25783	29461.21387	29324.8149	31558.01365	31919.19057	28833.42319	27255.26706	31543.87839	27466.61409	30667.79056	31188.45926	29045.31684	31291.34699	31760.61994	30377.49225	29064.86428	31002.92572	28490.00924	24960.90597	24805.27772	29685.60243	23812.05721	29296.98601
300	360	22795.75737	21260.72621	29868.34006	28962.70892	28538.31772	29297.7958	26754.67378	28881.25193	29262.64943	26042.23338	26607.56833	28904.81118	28404.53061	29897.01195	31289.97903	28931.65286	30709.6614	29141.2116	29369.31702	28230.23922	26879.25134	25599.7681	24033.52706	25529.54056	25862.7959	20390.03756	25418.40636
360	480	20556.55049	20452.12132	26111.94968	27102.60428	24751.45959	25272.64134	24511.15802	29008.59312	27480.30672	25452.57113	24327.59817	25824.92116	24003.55426	28032.88918	27113.72363	26314.15759	27010.78635	28214.79943	26212.61273	26031.35119	26506.73659	24529.12319	21662.07115	23150.23963	24007.82728	20577.02163	27172.05403
480	600	18761.0189	19721.23877	25334.66642	24734.06159	23013.44153	23518.12112	22635.6912	25524.94221	25955.30622	22825.40146	22555.80235	23282.22946	23647.94728	24498.82864	25850.1168	23349.69295	25836.92351	24760.19035	24815.01183	24555.42233	23907.53966	21870.97723	20206.58594	21481.37282	21519.81421	19131.28265	23211.16315
600	900	16352.33219	16437.44604	20565.68536	20894.76736	18547.08039	20929.87338	19125.20069	21856.89743	21870.70419	19461.25724	18797.78868	19282.38311	19462.32312	20754.01866	21246.04891	19902.89745	21229.05296	20889.50281	20609.19819	22313.53872	21726.60026	18626.94834	17326.79492	18697.6434	19775.40522	17022.16796	20145.4127
900	1200	13063.77852	13605.23277	17479.3461	16724.2321	14930.16951	16407.8294	15870.31	18033.8535	16998.91984	15782.73463	15579.84299	15581.85836	16135.26884	16718.97493	16584.14837	16234.33577	16679.99212	16783.22212	16395.60303	18938.20325	17506.62601	17107.17616	16216.64453	16378.12538	15979.18446	14099.90549	15703.2126
1200	1500	11625.82366	13478.40662	14808.42847	13854.17274	12913.25824	14047.98287	13170.18289	15202.55352	14749.27948	13542.82408	12803.74057	13156.90331	13948.03809	13859.09395	14038.88323	13749.22633	14070.82428	14183.14022	13718.06015	16266.68728	13945.23114	14565.88872	14808.8863	16606.26333	13821.17156	12600.89289	13628.45286
1500	1800	9842.33233	11936.02129	13279.06584	12219.17172	11187.14023	11351.67848	11789.7706	12546.51785	12478.31311	11446.85894	12358.41946	12466.57309	12846.35537	12056.87877	12792.44759	11979.25195	12707.17846	11918.26126	12454.35458	13541.56247	12028.6446	13243.44465	13946.26632	13784.28163	12633.15974	11481.51917	10646.78775
1800	2100	8208.51562	10586.50536	11560.04123	10561.98668	9842.4772	9842.38643	10890.12133	10848.90488	12035.64909	9968.36941	10368.18607	10126.13406	10185.40904	10115.88903	10210.83589	10085.01181	10438.43435	10045.70978	10535.02489	11966.55578	10383.86608	12138.90727	12597.19364	12186.72964	10507.33055	9372.45329	9729.94019
2100	2400	8137.98059	10161.04797	10564.15345	9004.27796	8898.04008	9168.44684	9144.39527	9482.37087	9841.87495	8935.12557	9483.18127	9003.58999	10509.6302	8442.05298	9828.63707	8807.75133	9859.92492	8869.46535	9753.88327	10894.14114	8818.88777	10817.89017	11399.49512	11242.58609	9661.4911	8631.19244	8376.75534
2400	2700	7863.01014	8140.89871	10334.91001	8448.81763	8508.01701	8277.93265	8795.81073	9247.60926	8841.12087	8892.32343	9254.29922	9062.99567	9996.14673	7809.47666	8877.96632	8243.1508	8931.03845	8843.32977	9009.80308	10225.55012	8409.09662	9886.12526	9959.06676	9611.0323	8257.21854	7469.35566	7669.22352
2700	3000	6340.17044	7366.88508	9462.9535	7877.97676	8031.98902	7278.39439	7615.47523	7939.27219	8216.15566	7603.26709	8854.18183	8334.72817	9742.2531	7973.78285	8810.68372	7813.06307	8641.80086	7708.92273	8533.61825	9536.86867	7245.03328	9138.88212	9452.31571	9955.6774	8331.8295	7890.34581	6399.16403
3000	3300	6252.7819	8004.35492	9246.03377	7432.3529	8161.14318	6800.44513	7235.29951	7410.53048	6917.75317	8002.00769	8071.57834	8421.11146	10094.48033	7354.05354	8557.95412	7776.09255	8214.3672	7569.19902	8063.33443	8913.22874	7594.15355	9387.35394	9410.78265	8867.22164	7688.52312	7055.93433	7020.3838
3300	3600	5733.17014	9067.02405	8686.05461	7558.75342	7169.08132	6207.69816	7363.29806	7056.26367	7931.09773	7633.8535	7779.59327	8559.98357	8692.23208	8043.36025	8002.48167	7928.14395	8094.77902	7410.62001	7929.7341	8778.20126	6385.11483	8398.82105	8489.96415	7386.41064	6961.95165	6820.7555	5262.27209
3600	3900	5108.94647	7013.71335	7516.28451	6581.83496	6961.83173	5477.42616	6639.79059	6498.07903	7770.30127	6326.93889	7975.33959	6886.26766	7997.14691	5192.30523	7616.58454	5660.79242	7673.51088	6025.51107	7718.46634	8922.18565	5883.78597	8245.79885	9281.71205	10003.23006	6582.9125	6178.1692	5208.21786
3900	4200	6426.01194	5426.77133	7524.16576	6497.37832	6545.84441	7244.54128	7106.59638	6684.23816	6809.60731	5998.09495	7497.99248	5884.54894	7123.85602	6153.38517	6173.60353	6469.38295	6560.93405	6105.69911	6874.46926	7442.90176	5061.60109	8552.72493	8035.68485	6734.66915	6066.78927	5030.65985	4733.43374
4200	4500	5542.03242	6214.49467	6679.50585	5601.51422	6245.46658	5293.75667	6949.06341	4909.78749	6153.14665	5418.76594	6869.38756	5624.41425	7007.16589	4536.50197	5971.4765	4922.3917	6088.68653	5021.1654	6339.33145	7057.07531	5779.51416	6554.71732	8434.12828	8630.99955	5807.4686	6376.55281	5357.97789
4500	4800	6054.10584	5936.50357	6469.53518	5824.18527	5677.73596	5999.81362	5686.49273	5524.63571	6206.11427	6060.09537	6759.40904	7228.06921	7314.56343	6331.58858	6388.83778	6447.33054	6386.48369	5971.20518	6402.07521	6562.32659	5082.80199	7832.48603	6979.40723	5454.37252	5684.39227	4972.32797	4772.0228
4800	5100	4056.48873	6108.8196	7318.61125	5645.67078	6912.43585	5301.00745	4993.30839	6849.56509	5476.49621	6282.29875	5417.38461	6477.5063	6713.33565	5841.53279	6535.11343	5733.82834	6225.10538	6395.81247	5747.82727	6795.84644	5816.3281	7371.70267	8688.55476	7690.24536	6902.51209	5811.86813	4415.80043
5100	5400	3896.38393	6407.1157	6951.67756	5918.65062	6466.53638	4037.57536	6431.81795	4766.42451	7373.99368	5153.57371	6763.05104	5593.31579	6970.39578	4735.34485	7086.5762	5024.11942	7087.74242	4922.39539	7023.59613	5953.83025	3633.30768	4526.10202	5300.9043	6165.89908	4369.14655	5120.89496	3711.19995
