frame_start	frame_end	Left-Cerebral-White-Matter	Left-Cerebellum-White-Matter	Left-Cerebellum-Cortex	Left-Thalamus	Left-Caudate	Left-Putamen	Left-Pallidum	Brain-Stem	Left-Hippocampus	Left-Amygdala	CSF	Left-Accumbens-area	Left-VentralDC	Left-choroid-plexus	Right-Cerebral-White-Matter	Right-Cerebellum-White-Matter	Right-Cerebellum-Cortex	Right-Thalamus	Right-Caudate	Right-Putamen	Right-Pallidum	Right-Hippocampus	Right-Amygdala	Right-Accumbens-area	Right-VentralDC	Right-choroid-plexus	AirCavity	Skull	Vermis	Pons	CSF-ExtraCerebral	Head-ExtraCerebral	ctx-lh-bankssts	ctx-lh-caudalanteriorcingulate	ctx-lh-caudalmiddlefrontal	ctx-lh-cuneus	ctx-lh-entorhinal	ctx-lh-fusiform	ctx-lh-inferiorparietal	ctx-lh-inferiortemporal	ctx-lh-isthmuscingulate	ctx-lh-lateraloccipital	ctx-lh-lateralorbitofrontal	ctx-lh-lingual	ctx-lh-medialorbitofrontal	ctx-lh-middletemporal	ctx-lh-parahippocampal	ctx-lh-paracentral	ctx-lh-parsopercularis	ctx-lh-parsorbitalis	ctx-lh-parstriangularis	ctx-lh-pericalcarine	ctx-lh-postcentral	ctx-lh-posteriorcingulate	ctx-lh-precentral	ctx-lh-precuneus	ctx-lh-rostralanteriorcingulate	ctx-lh-rostralmiddlefrontal	ctx-lh-superiorfrontal	ctx-lh-superiorparietal	ctx-lh-superiortemporal	ctx-lh-supramarginal	ctx-lh-frontalpole	ctx-lh-temporalpole	ctx-lh-transversetemporal	ctx-lh-insula	ctx-rh-bankssts	ctx-rh-caudalanteriorcingulate	ctx-rh-caudalmiddlefrontal	ctx-rh-cuneus	ctx-rh-entorhinal	ctx-rh-fusiform	ctx-rh-inferiorparietal	ctx-rh-inferiortemporal	ctx-rh-isthmuscingulate	ctx-rh-lateraloccipital	ctx-rh-lateralorbitofrontal	ctx-rh-lingual	ctx-rh-medialorbitofrontal	ctx-rh-middletemporal	ctx-rh-parahippocampal	ctx-rh-paracentral	ctx-rh-parsopercularis	ctx-rh-parsorbitalis	ctx-rh-parstriangularis	ctx-rh-pericalcarine	ctx-rh-postcentral	ctx-rh-posteriorcingulate	ctx-rh-precentral	ctx-rh-precuneus	ctx-rh-rostralanteriorcingulate	ctx-rh-rostralmiddlefrontal	ctx-rh-superiorfrontal	ctx-rh-superiorparietal	ctx-rh-superiortemporal	ctx-rh-supramarginal	ctx-rh-frontalpole	ctx-rh-temporalpole	ctx-rh-transversetemporal	ctx-rh-insula
0	30	4.736019134521484	4.61896276473999	4.069225788116455	1.9596818685531616	2.318199634552002	7.563547134399414	2.7503085136413574	10.75613021850586	8.614789009094238	4.01730489730835	3.9500129222869873	1.992354393005371	13.770800590515137	0.2974795997142792	6.154760360717773	11.22783374786377	7.803683757781982	7.368461608886719	1.9629029035568237	20.504131317138672	9.928535461425781	3.6300880908966064	2.005586862564087	3.2133758068084717	2.7680556774139404	0.8131328821182251	7.795325756072998	6.803618431091309	1.5019077062606812	17.125864028930664	5.453673839569092	8.112556457519531	1.46602201461792	4.370110988616943	4.874899864196777	9.547016143798828	11.960875511169434	4.804316520690918	2.8695971965789795	6.179610252380371	4.653572082519531	4.5635809898376465	3.1539902687072754	11.921574592590332	4.317089080810547	6.647494316101074	3.960780620574951	0.17552518844604492	3.0957388877868652	0.47024884819984436	12.134361267089844	10.932670593261719	11.16848087310791	2.704097270965576	4.891694068908691	4.20434045791626	4.254417896270752	3.0592381954193115	2.270639657974243	3.1180412769317627	10.559041976928711	3.8223154544830322	0.43409180641174316	7.0211710929870605	4.644941806793213	1.6059900522232056	1.8008531332015991	12.033379554748535	4.145369052886963	8.733476638793945	2.567247152328491	8.39501953125	7.10825777053833	9.584671020507812	1.1516646146774292	12.228169441223145	4.126656532287598	6.6990180015563965	2.0285515785217285	11.793097496032715	23.920101165771484	0.583412230014801	3.784946918487549	2.9000425338745117	0.9306841492652893	10.54587173461914	4.942000865936279	2.703373908996582	2.8125507831573486	2.4976396560668945	4.274477958679199	2.839505195617676	2.909188985824585	7.529659271240234	15.652164459228516	1.397979497909546	0.13604596257209778	6.4324822425842285	10.587993621826172	7.011809825897217
30	60	1025.5255126953125	1042.7041015625	1488.3818359375	1328.9964599609375	1098.9403076171875	1582.6097412109375	1286.9765625	1130.6912841796875	1297.0303955078125	1140.2794189453125	774.0504760742188	1482.9033203125	1193.376953125	700.3540649414062	994.6719360351562	1132.3245849609375	1342.80712890625	1396.1102294921875	1477.704833984375	1503.5880126953125	817.367919921875	1256.397216796875	1395.427978515625	1642.4049072265625	1149.1053466796875	1045.0361328125	287.79364013671875	389.6911926269531	1606.779052734375	1008.8936767578125	1321.67919921875	399.33624267578125	1510.957275390625	1519.80615234375	1524.3629150390625	1615.979248046875	1221.021484375	1166.1007080078125	1474.3990478515625	1298.6507568359375	1608.8819580078125	1282.9188232421875	1418.746826171875	1635.980712890625	1744.3504638671875	1246.98291015625	1595.7296142578125	1224.8486328125	1734.305419921875	1241.5792236328125	1604.88330078125	1790.71142578125	1415.6429443359375	1796.671142578125	1478.9664306640625	1716.537353515625	1478.7186279296875	1503.401123046875	1457.60986328125	1291.286865234375	1450.7208251953125	1519.448974609375	1605.7130126953125	987.3121948242188	2057.7255859375	1910.8623046875	1382.680908203125	1885.677978515625	1401.18115234375	2061.71142578125	1700.277587890625	1300.0145263671875	1533.7392578125	1208.7049560546875	1476.3206787109375	1279.7919921875	1648.5947265625	1461.2515869140625	1928.353271484375	1377.2135009765625	1186.845947265625	1467.02880859375	1697.803466796875	1447.293212890625	1612.8609619140625	1973.7991943359375	1422.6929931640625	1777.5479736328125	1433.1419677734375	1674.3590087890625	1820.423828125	1561.644287109375	1597.629638671875	1301.008056640625	1681.959716796875	1420.5101318359375	1556.766357421875	1312.4417724609375	1748.847412109375	1603.8375244140625
60	90	5702.4365234375	6428.1533203125	7870.931640625	8355.1220703125	7629.11572265625	9110.3427734375	6941.3154296875	6472.53515625	6644.94189453125	5584.7548828125	4774.00439453125	8805.0390625	6238.62158203125	6201.759765625	5789.34765625	5939.94677734375	8027.21875	8577.0361328125	7094.15234375	8858.5400390625	6224.06298828125	7014.9814453125	5534.5439453125	7947.57080078125	5801.63818359375	5341.44775390625	1404.052978515625	1824.2760009765625	8035.513671875	6610.94189453125	6667.59619140625	1803.73974609375	8862.0078125	7346.6005859375	8521.8798828125	10363.7216796875	6188.8349609375	6884.4462890625	8021.43896484375	7247.01171875	8398.5419921875	7555.12060546875	8025.97412109375	8943.8017578125	8403.1669921875	7381.78125	6311.5458984375	7290.6904296875	8773.685546875	7387.5869140625	8860.2392578125	9880.6005859375	7881.9404296875	9011.69140625	7975.267578125	9117.12109375	9377.2978515625	8690.0595703125	8275.185546875	7402.0029296875	7787.82275390625	8065.40087890625	8524.4404296875	5848.91455078125	10332.921875	8670.4384765625	8697.568359375	9085.4521484375	8260.296875	10092.9228515625	6645.70654296875	7034.66845703125	8452.220703125	6995.78466796875	9211.1015625	7856.0654296875	8553.2509765625	9279.716796875	9470.119140625	7872.36572265625	6899.62451171875	8267.1640625	9237.3837890625	8349.9453125	9257.0625	11289.537109375	7830.53857421875	9398.109375	8233.4951171875	9543.4052734375	9256.4697265625	8793.0166015625	8549.103515625	7352.0283203125	8344.58984375	8169.49853515625	9812.0888671875	5903.72314453125	10320.587890625	8238.404296875
90	120	12720.412109375	14060.08203125	18171.345703125	17799.5625	17729.7109375	19675.556640625	15168.708984375	13813.216796875	14931.8125	13462.8017578125	10522.517578125	17673.45703125	14893.111328125	11754.0283203125	12851.81640625	14198.7080078125	17926.533203125	19656.423828125	16364.8671875	19285.947265625	13849.6943359375	15238.1591796875	13749.96875	17063.7421875	14714.2099609375	11663.2470703125	2925.659912109375	4050.2900390625	17332.748046875	15081.046875	14311.3408203125	4073.171142578125	19126.85546875	16023.6650390625	19635.333984375	22217.890625	14382.3154296875	16007.0966796875	17958.0	16011.603515625	18747.900390625	16829.5234375	18377.388671875	20338.412109375	18374.55859375	16687.3671875	16433.04296875	15961.8681640625	19935.197265625	17570.490234375	19550.388671875	23376.431640625	17579.822265625	19335.36328125	18217.134765625	20841.400390625	19667.060546875	19100.341796875	18276.98046875	16330.8544921875	17460.962890625	17757.9921875	20140.17578125	13369.6171875	22690.025390625	18764.966796875	17993.482421875	17470.478515625	18381.8515625	22412.39453125	14414.037109375	15757.8134765625	18431.875	16324.267578125	19394.07421875	18047.236328125	18274.150390625	19880.119140625	19276.431640625	17110.52734375	15165.52734375	17893.0078125	19809.546875	18463.46484375	20337.3046875	23123.12109375	17685.146484375	19830.240234375	18861.580078125	20417.404296875	19747.9375	19871.48828125	18754.0	17386.490234375	18723.376953125	18537.669921875	19967.734375	12000.7958984375	22906.1640625	16543.947265625
120	150	21549.806640625	24990.734375	30827.259765625	30854.484375	29585.349609375	32996.55078125	24611.33984375	24081.388671875	24347.130859375	22904.130859375	17606.734375	30921.255859375	23013.140625	21109.46484375	21636.396484375	24749.0078125	30907.595703125	32849.2109375	27830.7890625	33018.20703125	24748.779296875	24531.7265625	21855.162109375	27117.705078125	24207.271484375	20319.095703125	4755.77685546875	6621.84619140625	30811.927734375	26034.08984375	23306.89453125	6722.63232421875	32592.064453125	27901.001953125	33071.21875	37064.9140625	23377.623046875	26886.037109375	30607.330078125	27828.568359375	33296.7265625	28792.291015625	29965.447265625	34761.11328125	30774.5703125	28349.56640625	25872.013671875	28062.197265625	33246.5390625	29645.818359375	32174.22265625	39279.4296875	30102.80859375	34961.58984375	31326.96875	35014.93359375	32234.18359375	32558.3828125	31119.146484375	28590.845703125	29396.365234375	29931.984375	34813.703125	23292.884765625	38764.5625	29308.71875	31328.361328125	30647.3671875	32401.89453125	38210.8515625	22791.841796875	26681.7578125	31410.810546875	28279.455078125	33600.703125	30185.751953125	30005.888671875	34481.3984375	32024.94921875	29818.59375	25465.419921875	29817.810546875	33091.30859375	29886.130859375	35051.95703125	40939.4609375	29550.755859375	34557.16015625	31276.685546875	34101.46875	32422.150390625	33633.52734375	31622.8359375	29124.607421875	30666.5078125	30739.08203125	35362.97265625	22957.96484375	38905.68359375	28975.142578125
150	180	25674.162109375	28998.4609375	35920.1015625	36074.890625	34269.08203125	40845.2109375	30332.193359375	27115.05078125	28337.169921875	26419.396484375	20082.501953125	34338.2578125	28677.64453125	22932.2890625	25770.853515625	28643.703125	36826.890625	38324.078125	33262.88671875	40784.24609375	28221.548828125	28875.712890625	24370.421875	31515.185546875	28264.173828125	23882.33203125	5336.91455078125	7611.02001953125	37443.9296875	31056.6640625	26186.06640625	7951.994140625	37755.2109375	32566.310546875	38815.484375	43725.1875	26670.3515625	32354.328125	36389.19921875	32394.1875	38435.94921875	34395.08203125	34995.0390625	40722.3046875	34320.37109375	33636.39453125	29778.25	33923.69921875	38679.12890625	34030.58203125	38097.9296875	44924.515625	34703.83984375	38714.8515625	36733.59765625	41097.45703125	37745.8359375	38520.76953125	36499.359375	34086.95703125	34486.33984375	35506.66015625	40025.55078125	27301.78125	43870.46484375	33193.72265625	37810.32421875	34288.2265625	36950.93359375	44061.5078125	25715.625	32693.515625	36737.2109375	32968.796875	39943.78515625	36163.30078125	34599.609375	39341.93359375	36510.46875	35280.65234375	29330.498046875	35694.6015625	38373.24609375	34628.51953125	39938.55078125	46817.60546875	34253.59765625	39691.703125	36600.0390625	40205.578125	36180.83203125	39531.1484375	36845.9921875	34106.63671875	36134.7265625	36052.44921875	41755.26953125	25763.69140625	43066.08203125	32429.7421875
180	240	26524.875	30541.16796875	37131.37890625	38350.5703125	37216.53515625	41861.98046875	32698.759765625	27832.515625	28813.15234375	26804.607421875	20346.6484375	36596.05078125	28462.583984375	22135.150390625	26688.283203125	29899.56640625	37640.8515625	40332.23828125	35743.5390625	42348.6484375	30512.32421875	29618.392578125	26862.78515625	33144.609375	27884.4453125	21617.85546875	5297.0361328125	7949.7587890625	36464.5078125	31571.9453125	26454.228515625	8498.9970703125	38979.25	32876.890625	39708.328125	44532.375	28140.248046875	33846.3203125	38242.07421875	33730.9609375	38337.8359375	36291.80859375	35099.5234375	41927.1171875	36481.109375	34879.890625	30508.16015625	33686.6640625	38563.203125	36192.17578125	39115.3125	47106.171875	35915.87109375	39028.44921875	37525.1640625	41858.84765625	38883.6953125	39473.19921875	37465.33203125	35191.4453125	35334.4453125	36429.98046875	38682.58984375	28607.2421875	43617.0234375	33903.01171875	39416.88671875	35528.015625	38753.3046875	45289.88671875	24944.015625	33437.0703125	38440.875	34009.890625	39199.48828125	37983.62109375	35164.453125	40433.7578125	37609.16796875	36162.3125	30660.349609375	36234.859375	39260.83203125	35223.33984375	39690.9921875	47143.31640625	35903.72265625	40210.234375	37431.0859375	40972.27734375	37424.35546875	40964.64453125	37783.6328125	35738.07421875	36567.34765625	37373.7890625	43029.2109375	27808.947265625	44601.05859375	33712.45703125
240	300	26103.322265625	30153.076171875	36296.24609375	37485.30859375	36332.6640625	42459.25	31789.72265625	26909.599609375	28627.935546875	27108.416015625	19572.728515625	35563.1015625	27917.744140625	21077.28125	26372.98828125	29259.044921875	36641.6640625	39046.2890625	34641.40625	42063.5234375	30408.5546875	29412.392578125	28271.208984375	33626.6328125	28258.87890625	21014.111328125	5239.2861328125	7910.2705078125	35969.30078125	30777.13671875	25110.05859375	8611.58984375	37539.32421875	32419.9453125	37400.9453125	42803.359375	26445.017578125	33230.2265625	36384.91796875	33157.33984375	36458.015625	34911.6015625	34711.26953125	39818.4140625	34652.328125	34275.48828125	29835.55078125	33124.546875	37228.1953125	34958.08984375	37963.4140625	44145.38671875	35090.6796875	38562.1484375	36820.7890625	40184.96875	38405.0625	37975.40234375	36090.62109375	34381.07421875	34551.49609375	35528.203125	38059.45703125	28125.0	42643.8515625	33148.734375	37534.51171875	34310.85546875	37053.3671875	42877.1796875	24527.37890625	32775.234375	37130.54296875	33822.1875	38104.921875	36712.2265625	34840.03125	38310.25	36780.61328125	35016.33203125	29998.326171875	34887.09375	37815.6015625	35981.62890625	38227.56640625	45024.84765625	34068.7109375	38924.609375	36626.88671875	39348.79296875	37556.76953125	39376.7734375	36171.3046875	34889.10546875	35589.35546875	36158.234375	41041.6875	27488.61328125	42127.0078125	32828.4375
300	360	25128.82421875	28965.689453125	33900.17578125	35664.2890625	34383.4375	39970.546875	31701.759765625	26118.5234375	27073.5	27601.6953125	18649.623046875	34536.1953125	26965.361328125	20183.375	25310.810546875	28840.546875	34816.8515625	38318.4921875	33951.31640625	40148.73046875	30274.919921875	27732.14453125	25852.04296875	32741.732421875	27681.9375	20235.484375	5098.34423828125	7930.93310546875	34902.57421875	28979.373046875	23512.7734375	8585.7275390625	33917.453125	30037.076171875	35297.9921875	39596.75390625	26324.263671875	31667.75	34364.078125	31387.234375	33971.14453125	32755.91796875	32218.189453125	37109.5859375	33067.6484375	32411.1328125	28006.28515625	31991.6171875	34706.19921875	32414.865234375	34843.6484375	40644.1171875	32934.5078125	35342.1328125	34393.546875	37588.72265625	35501.828125	35667.59765625	33862.15625	32351.697265625	32971.78515625	33091.265625	37271.8046875	26725.513671875	39375.62890625	31589.33203125	34836.05859375	32788.0234375	34391.95703125	40435.52734375	24206.251953125	31612.07421875	34364.5859375	31581.091796875	34207.046875	34774.02734375	32456.291015625	36071.81640625	34525.33984375	33845.9765625	29668.296875	32643.73828125	34957.37109375	33014.60546875	35497.5390625	40679.1484375	32298.587890625	35734.84375	33706.23828125	36302.4296875	34694.71484375	36926.1171875	33886.12890625	32211.40625	33649.7421875	33662.83203125	38351.375	25723.53125	39524.40625	31717.685546875
360	480	23144.728515625	27062.41796875	30795.705078125	32952.33203125	30814.943359375	35983.31640625	28364.884765625	24291.90625	25155.333984375	25768.2890625	16827.9453125	31115.87890625	25776.416015625	16686.68359375	23397.314453125	26321.708984375	31466.66796875	34737.51953125	28709.236328125	36107.234375	28045.505859375	25548.50390625	24302.4921875	30077.6796875	25560.01171875	16545.73046875	4853.14990234375	7662.623046875	30343.48828125	26010.91015625	20832.857421875	8473.123046875	31230.921875	27943.3828125	31665.541015625	35519.7265625	23630.533203125	29232.400390625	30917.119140625	28836.75390625	29776.029296875	29185.8125	29250.16015625	33265.76953125	30075.146484375	29796.671875	26343.5390625	28611.11328125	30993.9609375	29199.82421875	31130.529296875	35496.984375	29570.1328125	31381.146484375	30540.63671875	33648.90625	31943.990234375	31548.787109375	30208.896484375	29022.205078125	29816.1015625	29640.21875	32871.1015625	25375.580078125	33852.3203125	28983.369140625	32065.23046875	28668.056640625	30802.951171875	35277.71484375	22728.65234375	29746.173828125	31016.1875	29170.83203125	31448.294921875	31221.759765625	29627.615234375	32302.880859375	30734.32421875	30290.404296875	27017.58984375	29120.404296875	31009.490234375	29365.716796875	31147.857421875	35548.9921875	28712.59375	32292.80078125	30071.71875	32390.51171875	31511.87109375	32640.642578125	30002.138671875	29328.765625	30311.595703125	30370.078125	32806.5546875	24894.673828125	34435.51953125	29190.34375
480	600	21019.53125	24855.939453125	26805.44140625	29716.603515625	26849.97265625	32411.615234375	27878.283203125	21916.21875	22538.07421875	23801.7890625	14869.529296875	29584.220703125	23772.50390625	14221.900390625	21120.259765625	24207.783203125	27272.53515625	31249.091796875	24893.798828125	31979.08203125	26907.857421875	23432.587890625	22581.111328125	26595.294921875	23882.517578125	15297.5439453125	4566.23046875	7415.12744140625	26093.52734375	24346.37109375	17977.783203125	8299.6806640625	27325.1015625	24193.453125	26556.9375	29919.265625	22054.59765625	25900.396484375	26545.943359375	25742.98046875	26249.59765625	25586.24609375	25707.31640625	28367.39453125	27005.271484375	26072.744140625	23826.955078125	25208.900390625	26369.76171875	25692.46875	26913.048828125	30366.076171875	25568.697265625	27413.662109375	26584.994140625	28848.849609375	27506.314453125	27241.18359375	25990.37890625	25271.556640625	26410.6015625	25880.7265625	27815.5234375	22018.85546875	29441.634765625	26036.638671875	27672.724609375	24871.37109375	26024.9140625	29793.65234375	20868.740234375	26448.765625	26839.63671875	25961.990234375	26861.599609375	26403.001953125	25883.98828125	27476.69140625	27072.734375	26557.71875	24050.193359375	25018.24609375	26964.4765625	25464.205078125	26596.578125	30041.353515625	24578.611328125	28112.1796875	26048.48046875	28016.35546875	27027.84375	27813.927734375	25825.556640625	25291.548828125	26679.921875	26220.375	28789.74609375	22641.7734375	28847.13671875	25602.546875
600	900	18257.240234375	21600.2109375	21463.287109375	25042.677734375	21023.9609375	26212.541015625	24115.134765625	19205.919921875	19053.19140625	20371.666015625	12688.5986328125	23705.4765625	21019.623046875	12815.9765625	18415.099609375	21565.048828125	21708.20703125	25818.66796875	19811.89453125	26333.646484375	23892.31640625	19642.359375	20498.8515625	22895.017578125	20910.177734375	12629.2998046875	4251.37890625	7140.93212890625	21331.712890625	21116.15625	14446.9072265625	8014.84521484375	22188.17578125	20721.5703125	21265.7109375	23716.1953125	18789.583984375	21915.533203125	21293.521484375	21615.849609375	21471.21484375	20631.294921875	21114.099609375	23079.65234375	21653.173828125	21269.228515625	19865.4375	20052.484375	21342.109375	21144.3984375	21944.978515625	23896.970703125	20801.41796875	22334.837890625	21323.357421875	22870.193359375	22301.064453125	22013.4609375	20935.712890625	20314.001953125	21761.630859375	20865.037109375	22275.20703125	19490.080078125	23660.5703125	21757.51953125	22527.33984375	21064.947265625	20631.109375	23374.08984375	17938.712890625	22175.599609375	21559.0703125	21771.595703125	21210.052734375	21435.91015625	21185.248046875	22409.638671875	21949.63671875	21454.998046875	20428.4765625	20386.216796875	21753.158203125	20870.419921875	21381.900390625	23690.91015625	20078.193359375	22472.6953125	20764.701171875	22187.00390625	21871.134765625	22319.39453125	20688.595703125	20326.904296875	21416.990234375	21264.291015625	22415.498046875	19388.451171875	23150.349609375	21847.974609375
900	1200	15967.37109375	18495.318359375	16343.2646484375	19886.244140625	16204.119140625	20439.431640625	20571.52734375	16354.4375	15755.1953125	17223.3515625	10815.88671875	18510.20703125	18041.951171875	10366.400390625	16018.26953125	17821.431640625	16699.724609375	20679.150390625	15316.1064453125	20359.416015625	20357.154296875	15894.6982421875	17240.330078125	18130.5234375	18208.0859375	10580.2119140625	4025.326904296875	6956.11572265625	16616.681640625	18100.44140625	11539.193359375	7793.06298828125	18066.359375	16864.28515625	17194.087890625	18660.548828125	16018.0654296875	17747.34375	17186.68359375	17817.880859375	17311.58203125	16430.822265625	17368.291015625	18315.55078125	17767.984375	17305.125	16580.884765625	16115.6640625	17168.466796875	17338.439453125	17572.9140625	18686.283203125	16627.94140625	18136.439453125	17079.9375	17999.220703125	17854.685546875	17507.6875	16557.48828125	16269.1376953125	17543.763671875	16526.841796875	17394.259765625	16453.716796875	19055.794921875	17677.39453125	18164.333984375	17173.96484375	16430.6015625	18569.05078125	15320.3876953125	18367.376953125	16952.087890625	17809.48828125	17396.41015625	17180.865234375	17312.0859375	17616.03125	17408.96484375	17245.66796875	16898.611328125	16503.806640625	17496.94921875	17068.16796875	16931.841796875	18475.005859375	15829.8271484375	17619.619140625	16295.2021484375	17837.611328125	17689.26171875	17498.3984375	16411.953125	16061.490234375	17147.349609375	16666.720703125	17799.22265625	16256.2880859375	17883.78125	17665.189453125
1200	1500	14652.4111328125	16439.623046875	13518.4599609375	16588.83984375	13316.7646484375	17172.705078125	17935.55859375	14049.203125	13658.0380859375	14815.763671875	9610.7578125	15510.8896484375	16068.2626953125	10096.908203125	14681.3095703125	15983.638671875	13682.9765625	16804.72265625	12485.45703125	16969.939453125	17995.1484375	13600.6708984375	14451.8779296875	14460.0107421875	16184.9921875	9881.078125	4015.080810546875	6970.3603515625	13517.78515625	16004.3759765625	10107.494140625	7689.48046875	15143.6240234375	14837.1376953125	14686.0830078125	15927.6669921875	13085.017578125	15723.984375	14784.748046875	15584.39453125	15086.2978515625	14482.373046875	15300.595703125	16192.4951171875	15321.466796875	15219.8974609375	14292.046875	13439.9501953125	15063.291015625	15558.552734375	15545.482421875	16376.6142578125	14140.619140625	15349.953125	14808.474609375	15484.2763671875	15182.0546875	15137.47265625	14273.2353515625	13913.15625	15316.6630859375	14459.3505859375	14376.1435546875	14166.2939453125	16268.9306640625	15721.1630859375	16036.2255859375	14760.4482421875	14293.291015625	15837.5498046875	13435.4677734375	15911.1123046875	14655.9677734375	15439.6728515625	15052.931640625	14893.6650390625	15238.2939453125	15420.0244140625	15365.5283203125	14718.3681640625	14108.7119140625	14266.8974609375	15243.94921875	14822.0771484375	14851.580078125	16034.41796875	13562.017578125	15423.0849609375	14031.927734375	15374.4423828125	14775.9306640625	15193.4921875	14112.21875	13785.767578125	14672.7939453125	14327.408203125	14863.4365234375	14199.76953125	15206.9912109375	15201.7568359375
1500	1800	13654.9755859375	14677.61328125	11549.2529296875	14153.9306640625	11427.7158203125	15053.0361328125	15735.548828125	12331.732421875	11943.1162109375	13060.6103515625	8935.44140625	12803.3564453125	14100.189453125	9249.1220703125	13612.77734375	14353.0341796875	11592.9169921875	14396.662109375	10298.9921875	14548.697265625	16342.5	11859.130859375	12601.62890625	11932.49609375	14348.2470703125	8752.2783203125	4016.81689453125	7152.91650390625	11387.8515625	14087.2294921875	9265.591796875	7700.24365234375	14166.0419921875	13384.8525390625	13277.8212890625	14281.0810546875	11783.435546875	14213.912109375	13256.8671875	14278.896484375	13753.9130859375	13025.1044921875	13785.99609375	14537.5908203125	13854.2060546875	13619.6904296875	12651.732421875	12284.4169921875	13623.287109375	14235.7080078125	14073.6181640625	14899.876953125	12832.6064453125	14164.8837890625	13141.5244140625	14050.22265625	13111.2080078125	13835.30078125	12852.8125	12573.4423828125	13613.259765625	13222.9990234375	13301.5009765625	12434.90234375	14306.103515625	13940.34765625	14422.40625	13254.7919921875	12868.6640625	14245.37890625	11663.7509765625	14113.7841796875	13162.7685546875	13846.0087890625	13703.8955078125	13430.9638671875	13542.294921875	14084.6005859375	13508.2919921875	13131.1953125	12757.984375	12587.2041015625	13573.947265625	13331.5224609375	13311.4482421875	14690.55078125	12127.0068359375	13848.087890625	12349.529296875	13790.4462890625	13270.9658203125	13599.9091796875	12563.244140625	12260.4267578125	12910.83984375	12863.13671875	13676.306640625	12512.943359375	14166.40625	13763.791015625
1800	2100	12846.4052734375	13417.7314453125	9730.576171875	12546.5419921875	10045.21484375	13051.869140625	14370.7646484375	10889.90625	10462.9365234375	11516.1123046875	8307.685546875	12157.8759765625	12401.0068359375	9685.630859375	12731.78125	13137.26953125	9887.1708984375	12415.8154296875	9833.8544921875	13065.2138671875	14055.791015625	10224.5400390625	10875.7734375	12160.20703125	12737.2783203125	8500.03125	3916.352783203125	6865.46923828125	9578.7998046875	13043.0283203125	8617.5087890625	7513.5107421875	12915.80078125	11937.376953125	12319.9150390625	13437.8359375	10591.4736328125	13128.9423828125	12454.1181640625	13144.671875	12603.677734375	12174.7255859375	12783.646484375	13358.9072265625	12656.8017578125	12486.7099609375	11877.966796875	10692.05859375	12724.8369140625	13337.3466796875	13106.3212890625	14083.083984375	12038.9169921875	12827.8828125	12239.109375	12798.556640625	12207.7470703125	12909.5673828125	11462.7353515625	11748.1337890625	12579.818359375	12020.380859375	12017.1357421875	11408.224609375	13111.9716796875	12786.75390625	13307.5849609375	11832.3486328125	11763.69921875	13225.6728515625	10227.744140625	12907.109375	12321.853515625	12564.0078125	12755.0546875	12852.87109375	12655.318359375	12892.5830078125	12422.49609375	12124.2578125	11922.4423828125	10992.9443359375	12618.763671875	12098.87890625	12385.30078125	13677.3271484375	11420.740234375	12676.9765625	11516.603515625	12738.6220703125	11800.3876953125	12582.7998046875	11397.6259765625	11849.6552734375	12251.794921875	12056.7626953125	12618.052734375	11175.654296875	13215.6640625	12606.7734375
2100	2400	12308.697265625	12116.830078125	8902.4580078125	11099.4150390625	9250.666015625	12073.4013671875	13535.0615234375	9816.0302734375	10005.3837890625	10297.5185546875	7898.58837890625	10447.8876953125	11599.5888671875	8163.69580078125	12210.251953125	11977.4765625	8734.458984375	10814.6826171875	8891.0859375	11711.025390625	13142.1591796875	9190.16015625	9801.673828125	9841.0380859375	11757.240234375	7820.54833984375	3924.8779296875	6947.662109375	8699.509765625	11843.66796875	8222.96875	7306.63037109375	12011.8330078125	11118.3623046875	11637.373046875	12462.630859375	10028.716796875	12606.205078125	11601.7314453125	12581.8955078125	12078.2958984375	11601.658203125	12446.9072265625	12998.4599609375	11894.3515625	11876.0517578125	10160.1279296875	10223.755859375	12460.931640625	13026.70703125	12800.2763671875	13395.9345703125	11438.97265625	11748.4970703125	11358.9306640625	12100.1640625	11790.154296875	12048.1162109375	10886.470703125	11049.36328125	11866.0830078125	11385.185546875	11292.5126953125	10695.1572265625	12628.6865234375	11875.3681640625	12339.9033203125	11020.0693359375	10956.6591796875	12356.2978515625	9434.123046875	12447.048828125	11732.0986328125	12070.12109375	11684.1708984375	12088.943359375	12248.9404296875	12207.330078125	11689.9736328125	11533.3408203125	10988.810546875	10375.0654296875	11960.18359375	11917.4970703125	11833.98828125	13379.142578125	10564.744140625	11727.2666015625	10677.923828125	12061.78515625	11346.197265625	11694.6083984375	10554.8232421875	10968.373046875	11348.6796875	11364.548828125	11259.6044921875	10173.486328125	11929.9990234375	11873.900390625
