frame_start	frame_end	parasubiculum	HATA	fimbria	hippocampal_fissure	HP_tail	presubiculum-head	presubiculum-body	subiculum-head	subiculum-body	CA1-head	CA1-body	CA3-head	CA3-body	CA4-head	CA4-body	GC-ML-DG-head	GC-ML-DG-body	molecular_layer_HP-head	molecular_layer_HP-body	Lateral-nucleus	Basal-nucleus	Central-nucleus	Medial-nucleus	Cortical-nucleus	Accessory-Basal-nucleus	Corticoamygdaloid-transitio	Anterior-amygdaloid-area-AAA	Paralaminar-nucleus
0	30	1.25943	6.79897	7.3498	4.32176	0.75061	1.16671	2.40596	2.30155	5.59396	9.64281	4.2194	9.12768	7.339	5.27951	9.63818	4.99972	8.12611	6.47897	6.47788	5.33519	1.96097	4.67952	8.62551	6.51969	2.34978	1.95539	0.16662	1.26681
30	60	1149.3022	767.28456	1706.36228	1386.64101	1247.42148	1208.14704	2204.95881	1098.97751	1476.9265	972.58839	1114.7557	1068.89321	1591.22502	1283.31353	1515.79541	1189.47966	1544.96599	1106.45848	1539.6442	975.75949	1486.28688	891.27022	959.94915	1007.81517	1220.67613	1348.5896	2110.89535	1265.24373
60	90	6869.2485	4436.76386	7873.09913	7533.45367	7481.16133	6266.59369	7590.1954	6297.1622	6844.69774	5829.91185	5756.62419	7747.6012	7647.70207	7382.97239	8042.02354	6891.45466	7697.78516	6467.44843	7356.10303	5034.13642	5950.31946	5049.33084	4814.69391	5114.2798	5209.59038	5772.7049	10003.74944	5859.0903
90	120	14791.72832	12672.67064	17410.63268	15614.61317	16178.92849	15680.78917	15038.20173	13851.10922	14895.10721	13273.15546	12656.8133	17655.18194	16262.14967	16061.77713	16813.46039	15423.20041	16048.16594	14768.12525	15344.26863	12065.15098	14694.528	14539.56872	13088.02576	12694.2781	14810.2806	13550.25009	16292.7998	14275.23186
120	150	20801.47226	20117.19461	27081.02713	26144.67088	23676.04064	23446.9043	26679.19449	24302.31535	25906.40343	22930.87704	19724.60862	28820.2566	25493.46098	28245.64264	26823.60599	26266.58068	26199.9287	25342.65899	25054.65384	21016.7073	24922.88333	24802.12378	22289.26367	20772.32967	23674.01407	20196.44426	24063.53428	23278.86737
150	180	23815.13727	25652.86177	34237.65597	30725.62524	28752.00806	28423.34588	29956.39028	29779.82975	31411.39835	26243.5206	27679.34903	28823.32686	31000.74735	28387.38095	33258.67298	27962.13633	33124.74164	28911.76926	31519.99981	25680.07582	26781.9875	26609.96712	25871.00317	25081.28856	26649.90986	24448.37872	28628.51646	25559.01089
180	240	24442.71183	21578.05017	31690.27988	30748.31526	31018.64233	28134.74142	28623.03638	30401.94125	32094.32598	27459.21428	27033.9257	29685.42323	30374.87985	30877.24156	33198.1759	29168.07485	32437.85785	30288.98133	31024.51544	28187.55772	28995.93294	26626.27241	24525.20081	23387.39248	26862.33642	23227.81729	25047.81089	27826.09116
240	300	22188.33387	25126.54393	30735.91891	30315.07675	29333.56675	28665.08614	28711.52665	31950.83767	31637.32032	28218.89316	25328.86355	30053.79671	27552.07165	31137.14756	30729.55922	29604.92084	30618.37429	31455.4577	29383.14332	28264.38556	29778.379	29971.9894	26649.78589	25666.19535	29094.86948	24463.63001	25909.74551	28442.06212
300	360	22375.21219	22536.48131	28866.0411	28425.28755	27761.06519	27643.04026	26337.75571	29823.13835	29651.85969	26764.56258	25588.41369	26798.79104	27327.05347	29335.16126	30586.76254	28425.57113	30191.64214	29200.53816	28803.00223	29208.30102	27875.51475	26991.21628	23779.71863	24376.1414	26350.57747	21707.50655	25276.82134	26126.59851
360	480	20642.74819	21699.71815	25983.26062	26853.12732	24656.55441	25996.63139	24084.40316	27969.86405	27304.67645	25351.04158	23236.06721	25673.38926	24571.09071	28305.76201	27360.9536	26768.47737	27093.4894	27870.4196	26073.7133	26462.14822	26647.35645	25007.00996	23338.60254	24017.10432	25553.96575	22124.7535	25242.32417	25844.9766
480	600	18648.99417	20895.42147	24235.02286	24261.15318	22514.99925	24002.62065	22190.85173	26011.83674	24792.31519	22814.66112	20924.61347	22916.8365	22263.17125	24437.01722	24488.32463	23396.03827	24506.82014	24891.41793	23384.9971	24978.79802	24249.21915	23581.29679	21563.04199	21606.3914	22859.47165	20213.07515	21873.07192	23456.80285
600	900	15952.94773	16518.54677	19581.11057	20402.78268	18299.6482	19892.22025	18927.81288	21914.2148	21191.87995	19730.75622	18152.64013	19096.37488	18601.59664	21061.31073	20234.65101	20150.73882	20402.02904	21047.30442	19785.06132	22166.52997	21569.16589	19683.96681	18927.03326	19387.76298	19642.96064	17195.56452	19310.48789	20201.27093
900	1200	13232.69677	14510.17215	16830.71774	16339.92747	15142.37763	16081.42716	15458.53945	17757.47087	16917.10752	16066.70501	15072.28997	15137.54341	15749.71624	16359.34895	16543.27282	16106.15043	16617.55795	16788.89365	16104.58241	18675.99043	17337.10462	17639.4935	17032.2041	16947.19834	16702.42486	14811.50163	14666.59683	16270.81432
1200	1500	11618.05274	13565.78034	14929.7962	13814.00686	12973.74494	13925.34364	13578.89911	14786.13495	14619.58459	13653.39811	12883.87696	13377.08584	14106.30012	13788.7667	14108.47259	13669.47742	14157.80985	14021.40355	13826.32243	16061.40228	14359.82164	15249.59927	15287.17291	15868.83505	14449.40041	13066.45402	13698.22944	13895.98585
1500	1800	10040.17352	11770.99972	12882.22236	12068.58929	11256.09223	11866.14882	11961.8802	12643.97428	12457.39653	11926.38508	11990.1902	12302.56495	12456.30672	11918.02867	12166.52715	11916.55813	12317.91492	12180.82078	12170.00207	14018.0753	12454.94674	13296.07763	13710.59235	13939.72313	12410.51918	11453.84774	11615.2605	11467.75691
1800	2100	8534.50813	10852.97782	11552.37596	10537.61454	10113.40178	10366.11148	10865.06928	10986.09956	11520.50124	10232.28458	10511.60704	10000.13124	10669.86493	10024.91519	10434.19123	10143.28427	10563.09598	10173.58197	10555.64265	12279.54164	10736.44066	12139.2223	12227.11621	11950.88652	10714.05304	10014.20668	10634.92625	9920.45886
2100	2400	8720.89705	10782.89568	10802.97967	9292.13252	9475.06463	9644.84994	9569.982	9964.40156	9728.70422	9474.75775	9321.71497	9608.05622	10781.71529	8979.8184	9875.82428	9269.20841	9865.85526	9365.11686	9802.67303	10982.26831	9193.95702	11189.99648	11541.67847	11221.21803	9900.82591	9245.07588	9605.07118	8677.9418
2400	2700	7724.42911	9259.85389	10055.52937	8330.02689	8618.68632	8019.95662	8496.93257	9216.63598	8563.37783	9210.77124	9110.65196	9072.57555	9998.16672	8029.2737	8663.71691	8333.22515	8743.68175	8940.13281	8887.35147	10203.62156	8120.6062	10191.08868	10451.88657	10441.60909	8554.24905	8145.46494	7204.08894	7799.64128
2700	3000	6854.6756	8357.39271	10006.16161	7726.29643	8584.66794	7394.70388	7350.19796	7925.67464	7840.36031	8099.88831	8638.11496	8412.97181	10083.37123	7707.5376	8700.81948	7743.85927	8561.48505	7796.68996	8475.38911	9929.26613	7830.07267	9768.2166	9806.07031	10078.86478	8430.13486	8073.86481	7451.40914	7499.68136
3000	3300	7035.39503	8082.79596	9139.87674	7546.47116	8312.56203	7544.36217	7203.40254	7832.67513	7417.28125	7931.48885	7909.64438	8729.73671	10014.38187	7382.15161	8712.12905	7657.91785	8356.89551	7816.37256	8193.84336	8735.87055	7872.60209	9756.45936	9826.79791	9423.23281	8243.93698	7561.69877	9030.7384	7177.25141
3300	3600	7280.09781	8012.77623	8805.78416	7568.50029	7474.34708	7031.64574	6878.97232	7356.01063	7619.23162	7679.4809	7878.61819	7854.27898	9210.09626	7708.39547	8165.95182	7700.50968	8057.57931	7472.23699	8002.25397	8253.169	7196.61368	9284.84726	8931.01288	8193.33551	7751.56991	6914.19292	7466.52688	6383.92352
3600	3900	5215.04917	7375.9159	7480.15387	6468.77338	6922.29755	5615.21375	6667.88532	6630.22511	6927.54334	6752.72361	7846.27932	7706.51336	8077.65632	6290.42119	7093.28974	6429.60798	7182.54331	6506.48405	7406.73681	9412.06967	6242.80568	9689.28806	9657.20154	9627.54547	7040.1685	6510.34139	8378.87119	5478.77713
3900	4200	5468.33162	6516.80199	7430.33742	6217.16113	6664.56088	5907.07772	6388.40139	6583.47339	6378.65857	6663.86926	7732.34448	7027.16344	8396.05619	6338.57944	6919.2264	6399.5498	6798.67973	6478.73145	7115.21393	7982.26003	5699.034	8714.43466	7733.15918	7150.24034	5960.64066	5526.30407	6653.13378	5650.53242
4200	4500	5454.26121	5858.84426	6992.70641	6007.6255	6208.01468	5713.8021	6085.61625	5713.90109	6577.44266	6029.0856	7554.16965	6456.27484	7940.28379	5667.91705	7008.04503	5787.10249	6915.98366	5930.72576	7121.94349	7385.44909	5989.5831	6921.07781	7427.28006	7412.62617	5575.3548	5614.68411	6925.26642	5495.79803
4500	4800	5738.7365	6620.42718	6999.05924	6159.82608	5676.96221	5707.13561	6092.80486	6088.65371	6451.4957	6202.00162	6789.05576	6609.02953	7130.13577	6066.80748	6531.93189	6221.35041	6507.14804	6070.3549	6449.63198	6106.66937	5337.77498	7369.4313	6533.35544	6149.65753	6137.49008	5586.20596	5903.44508	4941.67699
4800	5100	5885.20361	5597.49312	7303.26816	6271.85194	5928.11066	6540.23866	5735.95013	6951.15137	5687.90979	6576.13353	6149.00403	6251.37572	6991.27028	6098.0397	6183.60989	6077.84322	6069.20641	6732.2526	6117.85602	6881.63552	5909.33599	6299.39177	6999.41663	6581.87732	5693.81571	5359.7019	6130.99418	6388.65516
5100	5400	4209.66125	6211.31297	6027.98848	5582.33304	5832.56332	4398.31812	6071.83893	5182.59277	6576.77347	5728.81449	6185.47284	6476.91407	6308.96256	5127.79693	6063.84547	5344.93687	6215.82156	5364.0052	6273.83181	6548.10192	4451.50315	4696.79614	5427.80487	5939.6858	5207.83122	5579.16954	4998.57202	4646.9484
