frame_start	frame_end	Left-Cerebral-White-Matter	Left-Cerebellum-White-Matter	Left-Cerebellum-Cortex	Left-Thalamus	Left-Caudate	Left-Putamen	Left-Pallidum	Brain-Stem	Left-Hippocampus	Left-Amygdala	CSF	Left-Accumbens-area	Left-VentralDC	Left-choroid-plexus	Right-Cerebral-White-Matter	Right-Cerebellum-White-Matter	Right-Cerebellum-Cortex	Right-Thalamus	Right-Caudate	Right-Putamen	Right-Pallidum	Right-Hippocampus	Right-Amygdala	Right-Accumbens-area	Right-VentralDC	Right-choroid-plexus	AirCavity	Skull	Vermis	Pons	CSF-ExtraCerebral	Head-ExtraCerebral	ctx-lh-bankssts	ctx-lh-caudalanteriorcingulate	ctx-lh-caudalmiddlefrontal	ctx-lh-cuneus	ctx-lh-entorhinal	ctx-lh-fusiform	ctx-lh-inferiorparietal	ctx-lh-inferiortemporal	ctx-lh-isthmuscingulate	ctx-lh-lateraloccipital	ctx-lh-lateralorbitofrontal	ctx-lh-lingual	ctx-lh-medialorbitofrontal	ctx-lh-middletemporal	ctx-lh-parahippocampal	ctx-lh-paracentral	ctx-lh-parsopercularis	ctx-lh-parsorbitalis	ctx-lh-parstriangularis	ctx-lh-pericalcarine	ctx-lh-postcentral	ctx-lh-posteriorcingulate	ctx-lh-precentral	ctx-lh-precuneus	ctx-lh-rostralanteriorcingulate	ctx-lh-rostralmiddlefrontal	ctx-lh-superiorfrontal	ctx-lh-superiorparietal	ctx-lh-superiortemporal	ctx-lh-supramarginal	ctx-lh-frontalpole	ctx-lh-temporalpole	ctx-lh-transversetemporal	ctx-lh-insula	ctx-rh-bankssts	ctx-rh-caudalanteriorcingulate	ctx-rh-caudalmiddlefrontal	ctx-rh-cuneus	ctx-rh-entorhinal	ctx-rh-fusiform	ctx-rh-inferiorparietal	ctx-rh-inferiortemporal	ctx-rh-isthmuscingulate	ctx-rh-lateraloccipital	ctx-rh-lateralorbitofrontal	ctx-rh-lingual	ctx-rh-medialorbitofrontal	ctx-rh-middletemporal	ctx-rh-parahippocampal	ctx-rh-paracentral	ctx-rh-parsopercularis	ctx-rh-parsorbitalis	ctx-rh-parstriangularis	ctx-rh-pericalcarine	ctx-rh-postcentral	ctx-rh-posteriorcingulate	ctx-rh-precentral	ctx-rh-precuneus	ctx-rh-rostralanteriorcingulate	ctx-rh-rostralmiddlefrontal	ctx-rh-superiorfrontal	ctx-rh-superiorparietal	ctx-rh-superiortemporal	ctx-rh-supramarginal	ctx-rh-frontalpole	ctx-rh-temporalpole	ctx-rh-transversetemporal	ctx-rh-insula
0	30	15.572972297668457	2.641071081161499	12.98397445678711	40.46064758300781	-6.120121479034424	62.27724838256836	-40.16013717651367	15.74731159210205	-71.29388427734375	0.4676124155521393	-7.511877536773682	284.7454528808594	-20.66791534423828	385.2768859863281	10.831830024719238	-0.00028208468575030565	14.60275650024414	-0.11604220420122147	20.262163162231445	3.5835912227630615	-11.343522071838379	14.781218528747559	-55.587806701660156	-265.0936279296875	-9.31879711151123	493.47882080078125	9.171183586120605	14.041190147399902	-31.489036560058594	31.09521484375	13.482089042663574	15.336812019348145	17.588024139404297	68.83908081054688	-15.897242546081543	24.527250289916992	5.911036968231201	0.4995327293872833	-0.0226563923060894	33.07124710083008	67.18194580078125	12.966937065124512	-7.421774387359619	-4.631139278411865	-10.302281379699707	-20.80584716796875	91.7909164428711	59.239261627197266	-13.056072235107422	95.65113067626953	25.978923797607422	28.87009620666504	-15.20698070526123	37.176963806152344	10.341748237609863	56.172447204589844	9.463603973388672	10.245990753173828	6.442788600921631	16.24185562133789	14.263291358947754	19.077091217041016	-11.833229064941406	6.0835280418396	2.9482057094573975	43.94407272338867	-18.66059112548828	-3.1492395401000977	19.72804832458496	31.400489807128906	-27.2242488861084	36.87074279785156	0.9447066187858582	11.971928596496582	0.4926511347293854	15.630599975585938	56.72130584716797	2.189399480819702	122.33406066894531	42.52193832397461	93.68791198730469	1.724609136581421	1.0995445251464844	-12.662391662597656	15.442300796508789	12.526127815246582	20.682518005371094	73.8774642944336	10.896349906921387	15.0634126663208	-40.6076545715332	12.3728666305542	17.052976608276367	7.6153645515441895	12.835481643676758	1.884853482246399	-27.52440071105957	33.603668212890625	266.4327697753906	73.86723327636719
30	60	234.73614501953125	292.5581970214844	654.5821533203125	975.3291015625	1072.914306640625	987.89013671875	216.01611328125	699.4857177734375	2777.209228515625	-494.82244873046875	351.7756042480469	-424.9089050292969	635.9171752929688	1409.779296875	287.6785583496094	278.22357177734375	618.3754272460938	1104.4171142578125	1233.07275390625	617.2763061523438	388.8834228515625	1788.0433349609375	1554.631103515625	-1249.413818359375	910.8017578125	-454.4481506347656	277.09918212890625	301.0270690917969	333.62445068359375	492.97528076171875	1043.3304443359375	85.21927642822266	1132.82373046875	1012.9306640625	1080.4105224609375	1487.289306640625	-1683.7325439453125	1406.2188720703125	1202.7896728515625	762.4593505859375	1802.7547607421875	892.2980346679688	1808.486083984375	1577.9677734375	1028.6224365234375	682.1452026367188	-8.49080753326416	1757.24755859375	2039.25048828125	204.87156677246094	1472.439208984375	1737.737060546875	1046.8214111328125	1659.7628173828125	1204.2325439453125	1143.5633544921875	1504.261962890625	1048.664306640625	1360.5860595703125	999.5234985351562	935.9609375	1163.4359130859375	1492.206787109375	655.401123046875	1656.8826904296875	2026.536376953125	1509.8714599609375	1464.8199462890625	1317.2926025390625	1870.57421875	-1857.6435546875	1009.736572265625	890.801025390625	782.208984375	778.257568359375	865.5120849609375	1236.549072265625	1460.26416015625	1637.5714111328125	339.786865234375	468.8504943847656	1057.554931640625	1290.615966796875	25.688093185424805	1350.1368408203125	1502.544677734375	903.7494506835938	1416.6627197265625	938.3760986328125	1198.9083251953125	1566.0167236328125	1011.3607177734375	1303.6890869140625	830.43896484375	862.8084106445312	1249.9852294921875	384.96771240234375	484.02410888671875	2290.28515625	2070.060546875
60	90	1891.31103515625	2896.04248046875	5973.931640625	7494.505859375	10946.5390625	10700.716796875	3363.85400390625	5774.9619140625	8137.59130859375	4896.748046875	2827.058349609375	13875.2294921875	6255.71435546875	38303.23046875	2196.534912109375	2928.307861328125	5817.56298828125	7052.5498046875	7529.796875	9728.8564453125	3395.003662109375	8873.525390625	-1761.156982421875	1301.61181640625	6054.29248046875	26188.494140625	1747.530517578125	1751.325439453125	4577.31982421875	4834.2080078125	6052.08642578125	599.0531616210938	7736.48974609375	6672.5615234375	9502.9072265625	11521.4658203125	2947.076171875	8566.1044921875	8179.1796875	8633.7041015625	5501.2392578125	8146.88037109375	10877.4599609375	9118.6767578125	12097.833984375	6710.111328125	6197.09716796875	7424.6162109375	12723.853515625	4778.01416015625	10164.74609375	13876.68359375	8360.0146484375	11100.79296875	8338.578125	9664.41015625	9758.0361328125	8810.095703125	8878.341796875	6444.92529296875	8757.849609375	8591.2001953125	9797.791015625	5745.451171875	8528.73046875	12895.638671875	7774.52685546875	6966.4296875	9830.03515625	11903.8701171875	5982.0908203125	7464.9130859375	6704.01513671875	7237.38525390625	6997.70703125	7371.13427734375	11203.1318359375	9171.431640625	11431.734375	6482.30322265625	4638.0966796875	8761.615234375	11049.7998046875	5388.8291015625	9150.642578125	13388.5234375	7470.85107421875	10663.884765625	7464.076171875	8466.4248046875	11381.0732421875	8214.240234375	8808.85546875	7243.75732421875	7741.23486328125	7907.8212890625	4684.08935546875	4716.15185546875	16214.6181640625	13435.6123046875
90	120	6446.41357421875	10627.03515625	23169.552734375	30723.16796875	35365.67578125	49626.8984375	6527.90234375	21634.458984375	27995.177734375	13702.33984375	10631.4482421875	9540.2353515625	19912.60546875	161655.796875	6793.64404296875	9371.8701171875	22514.9765625	27730.806640625	35533.08203125	44331.09375	4733.4306640625	27364.7421875	30436.115234375	3795.17041015625	16906.486328125	161912.71875	6884.291015625	5762.2294921875	31388.990234375	17168.314453125	19487.951171875	1887.124267578125	31120.98828125	23789.318359375	37293.0546875	44521.6328125	13326.72265625	36360.13671875	30605.337890625	32981.94140625	26627.119140625	32685.87890625	42766.64453125	35475.71484375	49320.5546875	31501.50390625	26544.67578125	29284.14453125	43290.734375	19328.974609375	39999.33203125	52420.66796875	35930.03515625	36205.6953125	34166.42578125	34613.5390625	45154.32421875	34273.42578125	33855.72265625	30047.541015625	33227.4453125	31532.6484375	30623.375	21724.17578125	39612.50390625	39923.0859375	33138.37890625	31073.337890625	37654.02734375	48271.11328125	12110.5	28841.251953125	26852.349609375	30048.69921875	26600.83203125	29948.630859375	48317.9375	33638.46484375	49029.77734375	29464.703125	20899.345703125	35867.984375	37532.54296875	25077.234375	34823.30078125	49803.78125	31882.97265625	31751.76171875	31303.62109375	34031.11328125	39388.66015625	33839.046875	36186.84765625	30121.501953125	27364.533203125	30920.61328125	23744.037109375	20578.595703125	51381.43359375	39333.33984375
120	150	8738.931640625	14535.619140625	33627.83984375	40969.55859375	53664.296875	68725.1171875	8495.37890625	30133.15625	23901.556640625	17808.29296875	13995.4140625	26517.869140625	24776.3671875	195736.0625	9169.6142578125	14017.63671875	32170.16015625	37322.35546875	49892.14453125	65775.4140625	9251.61328125	34021.56640625	25118.10546875	16085.248046875	23670.4296875	241104.0	8612.220703125	6403.31591796875	34915.5625	22507.71875	20195.412109375	2548.063720703125	36300.421875	35910.19921875	53491.9765625	56864.953125	43315.9375	49853.71875	45173.13671875	55014.34375	32462.1796875	42945.2734375	61709.81640625	44501.00390625	66024.5234375	44091.6640625	40659.76171875	44849.23828125	57285.11328125	26296.30859375	55568.12109375	75582.703125	52569.13671875	43406.6796875	49235.5078125	50488.71484375	57890.32421875	49368.421875	48783.67578125	45236.6171875	48068.5859375	44758.4453125	36721.2421875	35900.421875	55631.2734375	47937.3359375	46234.69140625	34147.2734375	54347.640625	61075.625	51274.69140625	39782.66796875	40296.96484375	44821.84765625	35707.6328125	42917.34375	70317.46875	44484.359375	66966.046875	43817.734375	31517.64453125	49524.03125	51625.359375	33751.703125	48473.65234375	69572.8984375	48846.11328125	48160.4375	45595.5625	49354.9296875	47155.921875	51058.2109375	50798.34375	45620.76953125	38748.08984375	42213.9453125	22318.787109375	41690.51953125	65954.0859375	46556.05859375
150	180	9433.791015625	15670.4189453125	36195.5	44538.671875	58872.65625	80610.5234375	10143.6513671875	34984.94140625	31749.201171875	44085.05859375	13569.162109375	34057.921875	23305.439453125	232398.015625	9551.9599609375	13613.0322265625	34779.22265625	42420.76953125	55674.01953125	71301.328125	12194.73046875	35774.484375	19203.16796875	1455.19482421875	24257.0703125	230997.359375	9154.41015625	6510.19970703125	44429.28125	23046.71484375	18314.533203125	2770.00439453125	42962.93359375	44740.2890625	58122.96484375	60199.44921875	60305.87109375	54345.39453125	50299.6171875	57983.52734375	33357.08203125	46281.79296875	64945.6328125	47288.92578125	76791.0078125	48832.53515625	43085.0625	48959.1171875	63504.83203125	25726.697265625	58243.25	84177.6328125	60220.8515625	45644.3203125	53161.84765625	56338.1484375	61541.40234375	54294.734375	54366.15625	51187.4296875	50848.28125	49945.76171875	34303.49609375	42493.48828125	63610.4453125	47854.890625	48252.33203125	38370.91015625	60959.0859375	68480.0390625	54781.96484375	44725.5234375	46687.296875	50507.109375	35258.78515625	46652.76953125	76437.25	48099.1953125	76995.15625	49422.55078125	35018.4375	54416.359375	54430.26171875	36078.3828125	55167.453125	74619.2734375	54611.67578125	51644.30078125	52131.94921875	53729.34765625	63075.8671875	55585.20703125	56635.7890625	52490.31640625	44180.046875	49728.75	27841.33984375	56693.9140625	63408.5078125	49555.68359375
180	240	10307.6904296875	17164.44140625	37511.54296875	47509.14453125	59150.875	75018.2578125	12774.396484375	35024.96484375	26303.6640625	27820.423828125	13550.4892578125	25653.279296875	27279.30078125	222741.296875	10241.859375	14745.630859375	36029.8046875	42411.42578125	60419.22265625	71423.78125	12361.341796875	33237.2734375	31760.220703125	6033.59326171875	26488.978515625	239183.609375	9318.7939453125	6684.62646484375	45113.01953125	23436.529296875	17416.427734375	2962.41064453125	42151.74609375	37881.1953125	58828.890625	60281.0390625	93449.2734375	54088.6953125	51207.359375	61719.36328125	32642.41015625	47254.2265625	67055.953125	48481.33203125	76861.953125	50312.10546875	44202.171875	50272.6875	64679.83203125	27754.13671875	61745.3671875	81427.453125	59757.53515625	48523.6875	54472.23828125	56206.7734375	61580.1015625	55056.48046875	55005.34375	52911.11328125	53516.4921875	49902.234375	36709.63671875	41161.8359375	55146.2265625	52627.40625	52307.81640625	40600.4921875	59163.25390625	64938.82421875	69875.4375	42471.2734375	48259.9921875	53406.56640625	37097.66796875	49283.31640625	74510.1953125	47354.87890625	80541.4375	51751.7109375	42492.41015625	55849.27734375	56451.3828125	39669.453125	56009.57421875	76792.71875	54231.94140625	51605.68359375	52726.27734375	53529.375	61355.95703125	56447.05859375	57887.828125	53533.15625	47140.734375	50482.24609375	27324.888671875	44071.65625	62896.0	54136.4296875
240	300	10448.8720703125	16023.7998046875	36987.37890625	45628.53125	57987.41015625	76372.015625	14802.6474609375	34894.125	30201.619140625	32234.78125	11877.5966796875	28422.822265625	25290.26953125	205338.4375	10633.7587890625	14400.3681640625	35278.95703125	43836.21875	57434.375	69056.953125	15270.1806640625	31693.529296875	21480.2578125	17281.8359375	28589.001953125	230646.875	9115.15625	6555.99072265625	42189.53515625	21737.587890625	16086.9228515625	3208.83447265625	41211.98046875	39148.2578125	55637.41796875	57147.8125	87948.859375	51205.12109375	49734.6796875	60777.59765625	31531.896484375	45522.3515625	63300.3984375	45851.578125	76575.1484375	51101.54296875	42621.90234375	47298.5859375	61441.38671875	29062.3125	57605.65625	76283.6328125	58497.57421875	46780.19921875	53060.703125	53787.58984375	64871.2265625	53499.09375	52665.6015625	51484.91015625	52841.12890625	48604.31640625	31362.958984375	43071.69921875	53727.328125	49830.3359375	50553.6875	36490.2890625	57631.0234375	62089.84765625	69346.5625	43513.4453125	46980.703125	52533.4765625	32823.69921875	46944.62890625	70910.65625	45778.3359375	77744.390625	50419.30859375	37704.4375	55964.1640625	52553.90234375	36003.6953125	53989.8125	70614.515625	52441.0703125	49395.70703125	50656.47265625	50537.00390625	61380.484375	54298.5859375	55791.24609375	52093.54296875	45910.47265625	48469.12890625	24408.373046875	46727.0	54781.40625	51238.55859375
300	360	10784.5830078125	17237.71484375	34208.50390625	45486.76171875	54587.23046875	67571.3359375	15486.8330078125	32279.51171875	29705.138671875	24459.912109375	10917.568359375	28016.4375	22723.09375	165810.328125	10972.6826171875	15361.7568359375	32733.1875	41590.53125	54200.99609375	65281.33984375	16513.353515625	29356.78125	22431.294921875	16921.36328125	25819.56640625	213342.125	8832.1884765625	6559.63330078125	34598.93359375	20912.400390625	14187.6064453125	3446.4931640625	38916.41015625	36588.26171875	51969.0	49430.29296875	65158.74609375	50987.1796875	46443.08203125	55891.46484375	28971.154296875	42462.41015625	55415.53125	44177.50390625	68571.2890625	47607.1484375	45559.33984375	43986.55859375	57162.125	26351.720703125	52422.76953125	67090.3203125	52833.5546875	41990.5859375	49584.51953125	50029.5390625	58263.63671875	49933.171875	48979.30078125	48087.30859375	50188.2109375	45578.88671875	26165.66796875	45369.609375	46611.28125	49730.6015625	48183.2265625	33937.30859375	53911.33984375	57969.46484375	76040.578125	40556.66796875	44618.14453125	48815.55859375	32102.392578125	44413.59375	65646.5390625	42966.60546875	75082.3359375	47931.08984375	38885.57421875	47657.2734375	49022.58984375	31455.701171875	50481.22265625	62895.5390625	48990.1171875	45530.83984375	48018.26953125	45784.09765625	56814.38671875	49903.50390625	52282.4765625	49177.5625	44208.91796875	44470.0234375	17477.197265625	52074.64453125	53562.58203125	49327.86328125
360	480	11158.8662109375	15360.8388671875	31277.80078125	41806.68359375	47164.26171875	58300.53125	16614.677734375	30801.3671875	15427.7041015625	33637.7578125	7544.68408203125	25496.150390625	25652.283203125	161971.84375	11193.259765625	15283.173828125	29298.587890625	38391.3203125	47238.27734375	54868.72265625	18886.78125	29549.00390625	16579.646484375	19351.810546875	26226.91796875	171148.1875	8818.3896484375	6177.95263671875	34131.98046875	19540.384765625	11417.6494140625	3802.788330078125	32611.12109375	35968.125	45938.0078125	41821.15625	83402.03125	44033.13671875	40943.0546875	50795.69921875	26940.7890625	35408.5078125	55644.79296875	36727.6875	57210.71484375	43081.46484375	41081.5078125	43118.98046875	51293.05078125	27617.533203125	46521.1171875	55123.76953125	47294.203125	37800.01953125	44104.50390625	44097.90234375	52702.921875	42245.90625	43487.6796875	43322.36328125	46030.97265625	40263.671875	26072.1796875	44182.10546875	43345.55078125	45764.11328125	39684.65234375	35703.265625	46925.44140625	49231.421875	71707.28125	36042.8203125	39460.2578125	44198.515625	29172.6015625	36873.9453125	60986.07421875	36751.625	65487.15625	41672.11328125	35955.5703125	41931.77734375	43147.45703125	29840.81640625	44119.07421875	50656.01953125	45080.19140625	39142.57421875	42853.78515625	41058.9609375	51714.0546875	43237.890625	46131.8203125	43313.375	39747.4375	40031.18359375	24906.607421875	51552.79296875	36901.484375	45647.23046875
480	600	11145.544921875	15176.8798828125	26512.82421875	37240.234375	40486.1796875	48624.71484375	17965.1328125	28064.205078125	17947.958984375	25600.671875	5182.24169921875	17130.72265625	24737.89453125	135159.609375	10918.8046875	14799.5908203125	25434.265625	35845.69140625	38387.1328125	47900.9140625	15821.681640625	25107.408203125	24414.162109375	39396.33984375	24349.087890625	115082.1875	8212.2421875	6122.3330078125	25812.09375	17847.166015625	8397.1005859375	4125.22802734375	28506.662109375	31492.59765625	39517.67578125	34497.77734375	73125.421875	37803.859375	34414.3828125	45387.53515625	23152.25	29522.359375	47508.20703125	31439.29296875	50367.609375	35815.39453125	35657.30859375	33600.51171875	41744.5703125	23294.48046875	41207.078125	42421.4921875	40238.12890625	31922.390625	37504.3671875	35867.14453125	43906.58203125	35904.46484375	37025.546875	36995.1484375	39842.109375	34451.953125	33301.8828125	45178.3203125	34343.828125	40152.35546875	33203.3125	32166.150390625	40119.390625	37659.25	66726.8828125	30689.361328125	33937.90234375	37698.97265625	26774.23828125	31112.228515625	51270.6796875	30809.490234375	60955.05859375	37682.5703125	32289.267578125	38667.1953125	37437.046875	29329.03515625	36860.01953125	40586.203125	37916.11328125	35056.2265625	36229.19140625	34789.234375	45511.37109375	37216.05859375	39666.7265625	36721.92578125	35127.34375	34019.04296875	21816.810546875	48220.17578125	31183.265625	40538.84765625
600	900	11475.4560546875	15902.4052734375	21492.01953125	30751.19140625	31190.56640625	34563.5859375	19047.859375	24786.537109375	13226.2880859375	27912.064453125	2968.67431640625	20135.228515625	22809.39453125	94475.4453125	11271.5302734375	16180.1298828125	20424.873046875	30687.369140625	30315.330078125	32926.83984375	20623.98046875	20493.91796875	22946.525390625	25927.56640625	23494.2578125	79962.21875	8210.56640625	6124.06396484375	19480.865234375	16303.7490234375	5477.626953125	4708.24169921875	24117.90234375	26346.908203125	30731.287109375	26099.716796875	68038.8515625	31522.755859375	26932.2265625	36312.9375	19423.955078125	22024.099609375	36933.25	25079.169921875	41199.26953125	29184.021484375	30333.482421875	26978.65625	33531.76953125	18365.736328125	33071.41796875	31458.701171875	30959.041015625	26141.74609375	30171.869140625	27483.0625	37201.63671875	28735.361328125	30042.30859375	28906.380859375	33006.45703125	27003.10546875	24247.962890625	40652.92578125	27742.775390625	35461.296875	25464.16796875	26531.400390625	31457.33984375	30206.140625	56550.921875	25168.673828125	27018.87890625	31526.71484375	21295.779296875	25181.294921875	41018.94921875	24652.21875	49583.96484375	30818.203125	29588.91015625	27430.521484375	28311.072265625	23762.548828125	29204.767578125	29725.279296875	29381.236328125	29276.232421875	29209.94140625	27199.591796875	39493.3828125	29797.69140625	31947.626953125	28895.50390625	30373.9375	27397.791015625	16477.5703125	45324.64453125	21891.6875	36368.21875
900	1200	11869.6630859375	15235.5205078125	16526.068359375	24430.513671875	23003.32421875	22911.53515625	18841.0078125	20198.28515625	11390.927734375	17789.693359375	1820.264404296875	21163.63671875	20988.234375	68514.1640625	11601.57421875	16206.853515625	15722.576171875	24897.095703125	22223.71484375	24101.28515625	17709.23828125	15829.9365234375	14924.92578125	16763.6015625	20538.51171875	62063.03515625	8124.53466796875	6284.736328125	12738.2841796875	16152.5966796875	3818.920654296875	5279.36474609375	18280.078125	22483.244140625	23343.734375	19748.763671875	49718.6796875	25696.935546875	20439.5	28754.619140625	15922.0400390625	17006.078125	28177.23828125	20271.037109375	32184.830078125	22829.037109375	23572.986328125	19264.2109375	26114.01953125	14504.9619140625	24881.759765625	24248.20703125	23447.74609375	20704.015625	22829.951171875	20863.546875	31001.814453125	22313.916015625	23296.63671875	22129.296875	26769.177734375	20384.494140625	22602.94140625	36820.3828125	24408.654296875	28612.033203125	20266.556640625	23059.40625	24316.623046875	23982.224609375	46488.734375	19612.7734375	20592.90234375	24531.34375	18310.78515625	19945.3828125	31069.349609375	19887.52734375	43362.67578125	24166.171875	22682.44140625	21395.625	22077.55078125	17418.02734375	23315.27734375	22172.66796875	22269.9609375	22508.822265625	22576.912109375	20602.67578125	31238.048828125	23219.09765625	24883.25390625	22273.271484375	24100.44921875	20846.40234375	8863.5615234375	38647.60546875	16204.5859375	30558.533203125
1200	1500	11900.0966796875	14790.6787109375	13481.53515625	19569.62109375	19546.384765625	15851.1328125	19405.212890625	18516.6640625	7915.6552734375	19106.357421875	662.6134643554688	6073.2939453125	19066.71484375	54541.75390625	11635.2587890625	15309.78515625	12904.5283203125	19681.306640625	18961.12109375	16308.2119140625	19098.28515625	12443.6357421875	14601.4501953125	1998.870361328125	19227.744140625	44857.046875	7904.92626953125	6331.85400390625	7982.759765625	14206.9169921875	2660.0830078125	5828.07470703125	15178.5869140625	18750.45703125	19185.912109375	16224.1259765625	44298.8359375	21659.50390625	16694.296875	23890.529296875	13651.697265625	13887.6865234375	23279.697265625	17981.587890625	28120.66796875	19783.107421875	21357.513671875	15038.1123046875	22013.80078125	12698.845703125	21368.3359375	19064.78125	19408.06640625	18824.0859375	18722.259765625	17059.755859375	25268.546875	18746.134765625	19355.58984375	18496.1796875	22675.029296875	16726.8515625	14288.40625	33631.75390625	21743.5234375	24562.0703125	16178.541015625	18470.1640625	20104.95703125	20388.83984375	40329.28515625	16619.5859375	17390.083984375	20491.77734375	16500.681640625	17210.8046875	24504.91015625	17423.91015625	38554.6484375	20791.00390625	17863.359375	17844.615234375	18221.015625	17092.314453125	19874.974609375	17917.21875	18293.779296875	19348.58984375	18353.357421875	16940.615234375	27323.08984375	19548.8828125	21144.853515625	17891.78125	20574.59375	17157.138671875	6931.388671875	34308.2578125	16330.2822265625	27022.349609375
1500	1800	11546.3720703125	13874.7548828125	11246.9580078125	15534.9130859375	13222.35546875	12907.2353515625	16507.361328125	15732.9267578125	6970.08544921875	16883.693359375	947.2510375976562	5661.1396484375	17749.326171875	50158.26171875	11544.54296875	14439.720703125	10517.451171875	16659.060546875	15113.54296875	12052.71875	17482.8125	9806.669921875	12958.3935546875	1843.2196044921875	16859.41796875	24164.07421875	7530.95703125	6245.31884765625	6348.67041015625	13201.1123046875	2123.963623046875	6110.7119140625	12493.1142578125	15981.7685546875	16205.0703125	13474.7607421875	37777.32421875	18438.140625	14098.0986328125	20593.509765625	12153.28515625	12217.4912109375	19716.322265625	15569.1591796875	24164.138671875	16718.8828125	17429.458984375	11704.77734375	19227.6171875	10854.7998046875	18614.5	16198.26171875	16622.4609375	16206.4736328125	15904.943359375	14280.92578125	21362.546875	16372.5576171875	16561.951171875	15419.6572265625	19475.548828125	14601.970703125	13575.794921875	30655.44921875	18196.3203125	20847.130859375	13272.5673828125	16564.744140625	16853.689453125	17058.935546875	35146.5859375	14748.85546875	14569.2470703125	17525.19140625	14272.0703125	14424.31640625	20676.744140625	15124.494140625	32886.12890625	16942.8984375	16999.6796875	14530.50390625	15695.5302734375	14025.17578125	16782.740234375	14884.4169921875	15000.9521484375	15708.2548828125	14661.244140625	13994.7490234375	22127.259765625	16462.396484375	17907.19921875	15212.017578125	17743.634765625	13897.24609375	6174.3837890625	29969.544921875	15078.310546875	21895.203125
1800	2100	11061.677734375	12464.015625	9370.5986328125	12465.521484375	11365.8603515625	10483.951171875	16103.978515625	14088.8916015625	5335.275390625	9148.833984375	1166.580810546875	5095.56298828125	15599.1181640625	31799.97265625	11073.16015625	13400.841796875	8930.638671875	13298.96875	11779.7744140625	10814.6474609375	15751.9453125	8729.6708984375	13431.951171875	-714.9696044921875	14596.9775390625	24266.978515625	7156.0927734375	6205.56201171875	4719.7158203125	11440.0166015625	1682.2412109375	6279.93505859375	12477.36328125	13634.818359375	14617.7724609375	12538.28125	35035.91015625	16551.369140625	12101.7109375	18692.3359375	10780.5498046875	10810.5888671875	16988.78515625	14055.998046875	21357.53125	14223.908203125	15152.6923828125	9596.771484375	17556.21875	10912.583984375	16724.0859375	14570.7080078125	14585.6767578125	13442.0986328125	13306.775390625	12573.9248046875	18386.14453125	14289.0205078125	14357.1240234375	12896.609375	18045.0859375	12476.9033203125	13608.861328125	26316.984375	15392.4443359375	18118.716796875	12359.0703125	15004.587890625	14912.1689453125	14472.9814453125	27365.615234375	13681.25	12469.2490234375	14757.12109375	12842.337890625	12637.3779296875	16942.533203125	14326.7392578125	30725.90625	15115.193359375	13932.966796875	12433.3798828125	14292.29296875	12441.2158203125	14643.607421875	13835.5859375	12772.619140625	13881.0517578125	12850.0205078125	12019.125	20516.814453125	14713.802734375	15652.35546875	13187.6591796875	15466.23046875	12270.4892578125	2435.7763671875	29757.37109375	11853.951171875	19289.62890625
2100	2400	10830.8203125	11283.4697265625	8193.1123046875	10324.2392578125	8281.458984375	7689.24462890625	15663.193359375	11979.1064453125	7526.13134765625	9202.7080078125	1044.5589599609375	-1183.1561279296875	12025.55859375	33815.02734375	10716.3544921875	12340.447265625	7497.76513671875	11466.033203125	9923.77734375	7028.78662109375	14606.0	6528.18359375	9258.0908203125	-6107.8427734375	13148.6455078125	15604.7666015625	6898.2998046875	6095.7451171875	7726.76220703125	11849.197265625	1770.574951171875	6375.2939453125	9572.0107421875	13476.7412109375	12307.318359375	11356.1513671875	31433.30078125	14090.9921875	10590.466796875	16195.5263671875	10133.6845703125	9323.396484375	13997.2861328125	12873.3984375	18679.9140625	12734.876953125	11718.69921875	8226.23046875	15595.4287109375	8690.2890625	14614.9462890625	12569.529296875	12541.6591796875	12530.279296875	11681.1396484375	10207.5439453125	17220.763671875	12456.595703125	12443.271484375	10807.88671875	15480.890625	10893.2607421875	10641.2900390625	23009.908203125	14935.3203125	15779.6513671875	10706.6494140625	12164.1142578125	12445.8076171875	12997.00390625	21406.783203125	12250.6201171875	11041.861328125	12819.0751953125	9769.1357421875	11500.375	16375.45703125	12546.474609375	25897.37109375	12922.1796875	12632.5625	11074.9658203125	13343.5068359375	10511.9892578125	12912.1435546875	11990.66015625	11167.0185546875	12671.458984375	11068.2353515625	10816.0751953125	16691.759765625	12822.392578125	13653.7314453125	11520.037109375	13563.2490234375	10190.6416015625	4676.20263671875	23598.3203125	11827.37109375	17587.005859375
2400	2700	10289.166015625	10576.130859375	7020.115234375	8881.79296875	7062.11962890625	7982.94580078125	12395.6884765625	10030.0	7549.33544921875	6158.416015625	1071.4161376953125	-3240.879638671875	11071.0341796875	23287.923828125	10339.091796875	11388.255859375	6736.189453125	10009.669921875	9088.646484375	6579.5869140625	11944.3525390625	5628.75244140625	5225.009765625	-6454.87890625	12708.181640625	16225.5166015625	6531.49609375	5919.0849609375	4430.60791015625	10842.630859375	1798.3648681640625	6411.6982421875	10216.201171875	9813.7119140625	11191.0966796875	10056.806640625	24584.9296875	13721.2802734375	9464.658203125	15229.44921875	8974.931640625	8462.2119140625	12878.806640625	12350.0732421875	16546.232421875	11031.8515625	12530.142578125	7443.056640625	13745.2578125	8709.3544921875	13064.64453125	11244.69140625	11514.08203125	10274.451171875	10405.7412109375	9540.5576171875	15564.7890625	11385.9228515625	11104.2607421875	10028.6953125	14340.7080078125	9724.8427734375	11267.3251953125	20231.978515625	14708.28515625	13779.3828125	9391.7939453125	12856.0068359375	11172.908203125	11846.1083984375	24353.03125	10698.6025390625	10243.771484375	11951.2216796875	10214.8056640625	10378.8115234375	13950.1259765625	11709.43359375	23058.03515625	11488.1875	11135.3740234375	9200.6689453125	10193.66015625	9288.1083984375	12345.5126953125	10580.408203125	10172.75	13261.4970703125	9425.5166015625	9640.4228515625	16940.84375	11707.5908203125	11998.4052734375	9573.8828125	12485.265625	8903.1533203125	5286.32958984375	22497.0625	11072.5205078125	15109.31640625
