frame_start	frame_end	Left-AV	Left-CeM	Left-CL	Left-CM	Left-LD	Left-LGN	Left-LP	Left-L-Sg	Left-MDl	Left-MDm	Left-MGN	Left-MV(Re)	Left-Pf	Left-PuA	Left-PuI	Left-PuL	Left-PuM	Left-VA	Left-VAmc	Left-VLa	Left-VLp	Left-VM	Left-VPL	Right-AV	Right-CeM	Right-CL	Right-CM	Right-LD	Right-LGN	Right-LP	Right-L-Sg	Right-MDl	Right-MDm	Right-MGN	Right-MV(Re)	Right-Pf	Right-PuA	Right-PuI	Right-PuL	Right-PuM	Right-VA	Right-VAmc	Right-VLa	Right-VLp	Right-VM	Right-VPL
0	30	32.16136	0.80109	6.00536	6.44583	5.80707	6.38543	1.64838	2.14787	9.55681	7.47142	3.67022	0.40745	1.72203	3.75019	13.26706	2.18251	4.1202	11.45162	0.1683	15.73415	7.25924	13.4476	7.58734	25.92397	0.47319	0.8825	4.74113	5.71658	4.32764	0.74314	10.78492	3.2325	4.34376	10.16366	0.9424	0.89265	3.51059	12.06653	2.00846	6.59878	12.35623	0.67734	8.7824	3.27142	4.01509	4.05174
30	60	2214.52156	2711.99322	2806.65095	2751.57074	2517.84243	2376.43137	3570.51775	2244.71502	2506.79147	2872.24569	2495.00953	1758.29739	2804.59798	3301.38999	2524.08811	2945.6154	2915.7545	2228.56677	2167.79144	2112.56571	2292.69893	1985.07663	2660.49887	2689.80481	2025.61978	2893.00571	2148.64757	2763.86084	3394.73759	3483.35891	2785.77859	3522.60108	3407.68666	3301.66804	1405.00317	2135.8667	3168.21712	2481.34549	3249.17318	2472.78485	1938.58833	1409.29384	2500.15946	2689.12725	2209.42342	2428.01501
60	90	13914.51106	11475.74915	16740.51769	13217.14542	16676.17784	12999.47427	17005.31179	12937.43041	17684.85786	15953.81181	11346.10579	9800.79821	10772.84747	17943.84229	12863.62703	13920.6788	15634.80557	10004.71453	10987.63184	11007.34984	13599.32982	10806.67146	12694.53278	11576.24004	9936.72399	14257.65845	13634.44946	12338.19832	12996.824	14181.59222	14828.3163	16210.72359	15477.60123	13470.89978	10285.57194	11981.90751	17269.98553	13332.10332	15555.08667	13449.23466	9885.2605	10127.56055	12214.93084	13299.96232	11922.61003	13120.22854
90	120	22194.66561	20088.79719	28332.29427	24089.70161	27718.15809	24050.87779	30971.65292	24767.45584	29245.40323	26568.88841	23521.80857	19673.83665	22375.12085	31222.58858	25508.71654	31041.92206	29978.96529	17738.1007	18736.55176	19470.06991	23242.65205	20382.22098	23490.58514	22940.98318	20228.72677	29718.76514	26549.43567	29972.32739	21015.08718	32048.27274	24949.87977	29136.76996	27824.06392	21939.50612	19815.98828	24789.45812	34306.85242	24630.27732	30034.36517	25753.18458	18612.60481	19366.27124	21929.08179	24288.3995	18148.40625	25236.97452
120	150	37133.49569	31831.52231	50241.30773	39686.48542	43752.58876	31539.73582	49365.92886	40098.8975	49456.28715	44937.313	35020.16599	29176.99751	35888.20758	48668.28186	39617.11542	41914.57178	41710.94188	28700.48346	28857.33545	30809.20316	36297.89549	29490.57031	34358.09804	32286.19723	33273.23005	42161.24902	39105.0689	35306.35547	36308.18805	45159.82946	35362.07964	46883.65177	43850.40963	38960.94572	31011.00326	36653.79177	49116.03892	38684.39842	46270.92623	40932.81603	29091.9915	31374.04248	31908.49442	38203.99358	27630.48242	36665.93049
150	180	41088.30941	39780.38027	51485.02214	45646.61913	47994.05664	38654.09648	57025.33624	45384.27191	54494.64318	50910.40964	39641.11351	35556.72372	46066.25024	53927.5407	42539.14212	51682.30285	48138.72436	33779.58696	35116.10449	36572.8728	41975.02684	39727.70815	40846.73946	36316.42723	38346.75373	51160.77295	47968.84464	46392.43115	33482.54963	53579.96555	38545.18446	49637.18398	50288.19503	35960.53689	35876.83854	45460.3593	53053.34202	40237.27309	50591.97742	45658.38658	32941.48757	34787.66309	37258.02411	43519.56575	33571.69531	43417.47629
180	240	35829.99679	37441.67183	54679.78559	49157.35351	49148.18859	40111.94248	58682.56476	48903.20669	54829.90648	51855.77683	40366.81666	39239.42898	46548.15622	58569.58727	46006.21621	56570.80066	50850.16702	33191.73803	36738.40332	39193.64675	45003.15408	41573.48549	44806.12385	35915.08301	35690.95907	53599.65869	51795.68274	45812.02588	38210.92497	56949.58116	45015.62804	56700.61004	51822.00981	46576.22109	36669.9362	45450.6742	58619.66663	43472.12616	57065.32613	48373.42251	32230.55178	35765.65332	39195.54726	48224.18302	37571.41406	46430.78397
240	300	37493.1488	41625.91406	50938.2513	49353.14774	42936.98372	39963.409	57074.74714	48085.57065	55728.96771	52415.40392	43300.15077	40713.66264	43453.87586	59595.81472	46725.94546	57203.20692	51761.38424	34704.37347	41720.64648	39763.80486	44590.87809	42203.70145	45873.96424	37363.48544	37596.89403	47638.6377	51022.09229	42569.19873	38424.02211	54231.25885	44165.19097	56950.43045	52248.31657	42690.39743	35413.63932	43429.44066	62171.42264	44874.61091	55403.67984	48118.86702	34444.42574	35370.63281	42170.30139	48389.10552	33945.56315	48529.24488
300	360	37525.53589	37374.17146	48984.23958	49386.94703	43712.78103	38641.17344	51607.38507	46357.37211	51788.46132	48333.58719	42640.09456	36834.30611	46035.00946	57970.25088	46827.08756	55256.40077	49571.5063	33428.33436	36643.77246	37191.68575	43157.82295	31651.69587	45071.97864	37533.01854	38821.56635	45260.3042	49814.3924	40157.46086	36512.04237	48290.37913	43083.6428	53418.90085	48736.8992	41513.10305	34986.42318	44647.18495	58159.17755	43588.0585	52360.74466	47245.01194	35536.49684	36719.79736	41455.3458	45727.42817	39798.83724	46528.52627
360	480	32655.57907	36409.32312	45850.10981	45816.24005	41162.0536	40416.85745	48205.96176	41983.82439	49476.72721	45376.0922	44159.11389	34827.33381	39338.24332	53099.05457	43158.74932	48595.09973	43763.45528	32049.47245	35633.36914	37718.00344	43083.9333	34832.9096	43650.03587	33824.12978	34808.17685	44359.70361	50413.82623	36479.19344	34044.32444	45854.78968	40767.03906	48783.76583	45342.1656	41078.50914	32801.20247	43800.70433	52317.48888	41302.65949	48563.73223	43357.0204	33859.73576	32868.84668	39930.13344	43996.68371	33032.67122	43407.71939
480	600	31293.34406	34914.80974	40995.55295	41728.16534	34632.6071	32810.0692	41188.51524	38264.23828	45156.40501	41043.10313	38950.18286	31747.19869	36057.39227	46613.47593	38294.24562	45302.37588	37461.507	32392.14117	33481.71533	36443.22059	39924.89722	32294.9216	40050.12835	30958.59601	34774.11982	39195.84814	44962.16878	31962.795	31372.18541	40091.42904	37441.89497	44899.10387	41102.87754	38068.15196	31821.77669	37928.97378	44991.8351	36742.58252	41395.70223	36298.08093	32208.12451	34500.78149	37475.36562	41557.55427	30712.42839	40640.59555
600	900	28409.00028	31724.77466	34660.97765	37866.47579	29781.03765	31742.16879	31577.30514	28926.58577	39427.76113	34687.28775	34520.46657	29190.0032	31437.38905	39684.49899	32227.85737	37425.67312	30901.2462	29798.02358	32553.68311	34372.19672	36064.41555	27052.04046	36430.68731	29138.3862	32888.38625	32035.24243	38442.72421	26832.05387	30122.44982	31722.31545	27874.52951	36943.09071	33639.11709	33046.52493	29786.58724	34324.79271	37303.20603	31503.44819	34785.67329	29384.27354	31103.12211	31921.37305	34108.763	35640.88476	27476.11523	35364.74025
900	1200	25757.76889	28822.74275	27145.39497	31091.94126	22773.80382	25557.55274	24100.43016	25561.0073	30748.00395	27042.18942	27575.13824	26302.29972	26305.62178	30775.11623	27088.46006	28374.12469	23429.69159	27494.85883	28838.8125	29733.35582	30218.5463	26013.3923	30173.49321	24449.53069	28862.84357	23809.21655	29466.37592	21525.59172	25031.6623	25096.86583	20576.89909	29576.63742	26027.52168	25305.51416	25023.98568	24947.09078	27843.37932	24870.5413	26856.8277	22705.58897	27229.91422	28408.39941	28892.62867	29258.37314	23837.62565	28715.45617
1200	1500	22397.62559	22689.31853	21121.32075	24506.11373	18581.95779	24806.49848	17107.74923	18706.03371	24216.87155	21211.96322	24295.65173	21460.16104	21142.57004	23240.86945	21869.83291	21213.46341	17553.68006	23806.62978	24200.1084	25389.16322	24685.61642	22176.17299	25333.03845	22841.39064	22189.05395	17761.02795	23691.9973	17133.21025	21911.50383	17060.77617	17670.29991	22646.66358	20519.53329	20668.86836	19917.75977	20748.54475	21334.79984	21301.38478	21283.22735	17663.6634	24053.38615	22013.13428	23579.99756	22974.99195	21971.23438	24080.52139
1500	1800	17922.92072	19662.5189	15682.13075	19414.84438	13936.05203	21471.36886	11936.36238	14264.82401	18458.16618	16468.72295	19753.19719	19544.61275	17579.84336	18337.33333	17378.84423	16618.55843	13845.32099	20453.27282	20482.38086	20873.59549	19863.70844	19531.09794	20975.84131	17496.35062	19625.07304	15179.92371	18034.46605	13951.08081	20209.11656	13457.51193	14021.83344	18451.1578	16654.64195	18569.7147	19787.9388	15276.60896	16552.79049	17962.95149	16521.52184	13897.44154	19477.27571	20017.79419	19690.63194	19592.39026	20032.00911	19923.47715
1800	2100	14690.39822	16048.35603	12976.09039	15401.42734	12176.70812	17706.6356	10511.77066	10652.01197	15192.39097	13502.0698	14876.88778	14707.93288	13555.84229	14498.40096	14659.49117	13546.51334	11431.52775	17375.54652	16200.47949	17903.83133	16659.71567	16474.75991	17245.53655	14684.00737	14844.55543	11999.69495	15569.4732	11594.10942	17848.74919	12200.4287	11689.70226	14107.33361	13027.6688	15740.40855	14967.13444	12795.21015	13577.42686	14932.43994	12950.46682	11850.55461	16779.07975	15592.73035	16371.8448	15704.0774	16786.7793	16655.67212
2100	2400	12842.09136	14468.28315	11581.94054	12516.15347	10950.39676	15124.83211	7541.6611	9405.93088	12178.3982	11425.80108	13417.62355	14399.61737	11343.12776	10371.19689	12401.1056	10677.89894	8860.7032	14263.70217	15603.16406	15092.21638	13571.13912	15873.82799	14462.47381	13108.80256	13405.99103	10185.67865	12014.25416	9641.43935	15085.68555	9406.13675	10909.35916	12471.5766	11500.20014	12820.74861	12535.01009	10098.04897	10780.00075	12848.40881	10197.56339	9753.83339	14012.5241	13462.88257	13744.38036	13094.80598	15263.71094	13660.03589
2400	2700	11376.99907	11460.31499	9540.71783	10135.00492	9552.83301	13089.56836	6434.58789	7592.3587	10641.83742	9457.21178	10657.55355	11489.47177	8950.45513	10235.26019	10509.55172	8813.42474	8072.03425	12637.18725	11800.0896	12718.42185	11788.5689	16780.21833	13039.76513	10835.98414	10350.0919	8620.96112	10078.47663	8128.69491	13491.72521	7754.74161	6809.87104	10768.86959	9223.02229	10563.08049	10347.05176	7867.42001	9754.52145	10022.17063	8894.25959	8468.53047	12284.26123	10843.33105	12432.28112	12025.20298	13586.24089	12652.80388
2700	3000	10794.4824	11356.82336	8063.90055	8961.95662	8660.49525	11936.19638	5941.03219	7252.4355	9066.91715	8429.40581	11137.89491	11274.33825	7988.00936	8554.7304	9973.33746	7686.12772	7248.96653	11493.62776	11258.88379	10938.12936	9781.96877	13254.28962	10781.17695	9788.02091	10511.56849	8119.71106	8406.17963	8414.4868	13057.44516	7258.73435	7348.70844	9641.41778	8610.10447	8393.99153	10080.39811	6352.10071	9042.28662	8913.28894	8304.68644	7652.67533	10097.35022	10255.22131	10360.9522	10087.56988	12909.96549	10889.0464
3000	3300	8408.51884	8751.88417	8140.01286	9131.06859	7695.00784	10258.33726	5832.4239	6524.20739	9083.71264	7872.28822	8291.88651	8840.05114	8019.96399	7592.91022	8008.27183	6545.15664	6232.43019	9606.57966	9112.87134	9063.02903	9184.92655	11306.76032	9302.92862	8953.90252	7746.39924	6791.87225	7981.19588	7014.66675	10068.05761	7113.51581	5663.61605	7819.51349	7333.80905	9462.86176	7340.74951	6673.89086	7588.91793	7724.28526	7380.85216	6827.22899	9284.05134	7375.67645	9618.2295	8689.74261	11921.57617	9336.5517
3300	3600	6461.00577	7114.46722	5405.34353	7316.19447	4598.11583	10251.73686	3969.09162	5742.25187	5972.49694	5728.09326	8255.02479	7993.85431	6583.34107	6909.48613	7639.94342	5948.86909	6232.11499	8315.10341	7792.28979	7794.50728	7541.69538	13059.3245	8937.3436	8577.01494	7448.992	6720.92078	7074.37516	6815.91836	9075.48591	5783.59942	5686.83453	7521.46334	6498.99213	7553.25725	8275.26204	6287.32057	6249.86163	7255.37895	6116.27958	6061.97511	8683.42441	8828.21667	8359.52454	8167.04285	11680.44401	8341.9962
3600	3900	7558.74278	8231.91957	6149.57433	6662.29782	6259.33553	9647.82274	4636.73812	5690.567	6488.24233	6220.73642	7231.01619	6792.27832	6162.65026	5802.12428	7516.71878	5497.57913	5211.55176	8370.84247	8049.25708	8907.50504	8125.45405	9138.11119	8099.50154	6336.81216	7593.04354	6406.35107	7722.70715	5713.17041	8882.34674	5059.86561	5509.96479	6835.7357	6479.42484	6785.35544	6707.47396	5483.40131	6697.86341	6617.07075	5763.18581	6086.27779	7324.90399	7816.71674	7200.79549	7546.52142	9312.37598	8011.61108
3900	4200	5616.17707	6287.61456	5529.27873	5790.09739	5640.61599	7911.58754	4317.74635	3806.92595	5351.67023	5251.98097	7382.16436	6803.65194	5317.49599	4880.3861	6139.949	5177.17036	4707.39706	6875.10433	7471.91089	7367.4874	6219.41385	8248.07561	6739.21516	6421.49766	6531.55483	4742.2182	5882.07578	5340.74137	7705.6485	4743.82244	6049.02121	5322.85502	5112.15932	6331.76558	6551.21517	4041.29353	5639.17736	6816.65593	6096.45887	6126.63304	7763.06873	7380.95465	7417.62804	6460.45756	6839.24137	6822.16291
4200	4500	6509.0448	7742.09042	4056.98692	5496.69441	4395.1858	8376.69512	3588.96635	5467.18549	5333.4542	4831.50796	7217.73959	7140.35951	6636.47872	4607.68287	6605.27137	4386.11812	4249.8744	7423.90377	8593.60962	6711.477	6330.64783	10369.85672	7184.73575	6559.77902	6343.18461	4960.41153	5306.36654	5466.31755	6968.55392	4860.00628	4680.16547	5221.67076	4969.76534	5403.94143	5833.02669	4560.12023	5119.80983	5442.41233	4964.19562	5270.03162	5929.83176	5748.32288	5646.43918	5823.97639	9233.89779	6108.1832
4500	4800	5023.07433	5810.57125	5746.60419	4181.4886	6472.46552	6431.19062	4386.42275	3118.29972	5503.49022	5264.42045	5865.48027	5142.61608	4763.36526	4209.40903	5713.85982	4262.80085	3551.55311	5429.31088	5594.67139	6108.91686	5601.38091	7795.72649	6077.75161	5729.25281	7046.05682	5281.02676	3972.93031	5830.25513	7998.36252	6262.4936	4250.26573	5544.32986	5480.67966	6012.3577	7154.66064	3567.15709	5210.27664	6005.06196	5310.56634	4929.16829	6327.78539	7439.36829	6041.23319	5729.13865	9761.87663	5530.87582
4800	5100	5998.63295	4750.80564	4533.49571	4886.8937	4529.93182	5918.81491	2959.36498	3960.22388	5388.61698	4820.0355	5760.68415	5622.02757	4056.15657	4370.9765	4637.91403	3929.06619	3930.8553	4858.07523	5906.66858	6072.2241	5987.51065	7252.82729	5958.47899	6777.28637	4703.27857	4443.16861	3569.44217	4464.20886	5483.13954	4574.32713	3314.17087	5480.38057	4906.38011	5014.41964	4310.71468	2511.07529	4373.17815	4387.15348	4927.37684	4940.78722	6020.78141	4604.31055	5598.98188	5098.96291	6559.96387	5948.39212
5100	5400	6036.37254	5529.86245	4322.24879	4246.01888	4348.73006	5347.89762	2788.91605	3051.18546	4954.30877	4497.5878	4480.31007	4508.18819	4628.06789	4596.48474	4317.62171	3355.27642	3556.88005	5529.88627	5730.67236	6762.73377	5747.8087	6372.54241	5337.16699	6121.4678	4745.84541	3366.147	3998.65487	4220.7066	6568.61951	4737.36957	4086.90316	4650.38676	4150.11275	3645.5257	4332.97477	3860.24696	3704.37873	4458.75883	4462.15814	4273.75782	5389.12319	5028.10675	5713.63914	5799.69665	6487.86393	5109.82747
5400	5700	5077.69718	5830.28547	4169.54953	3330.94995	5002.76099	5713.13303	3124.16831	2711.36286	3681.23068	3869.46116	5967.15954	4981.49241	3747.85968	3626.82036	3876.76757	3447.33285	3404.26433	5588.61445	5805.3905	5306.02743	4536.22032	6181.98354	5800.28742	5707.82642	3665.04349	3357.56659	4157.31088	4042.25222	5245.10462	5200.24273	3374.43538	3256.02645	3820.08921	5214.96951	4012.09546	3119.80615	4336.64907	5743.99996	3810.37951	4935.13564	6259.39229	4116.17599	4549.10071	3878.37557	5432.84587	4772.60295
5700	6000	5364.40839	4807.59592	3493.43311	6035.59585	4082.08263	6105.16855	2620.29543	5387.21355	2405.11348	3744.69214	5469.82819	4837.1191	4679.3259	3490.08315	4114.68533	4724.62591	4140.34266	5448.10273	5269.08911	3952.40107	3849.26483	7295.16999	5944.21031	5614.87823	4356.95475	4974.49802	4813.41452	4944.1353	5114.94368	3950.91684	3264.09446	4173.21755	4741.15813	3609.45376	3099.4401	2827.56092	4295.3184	4933.02851	3135.00342	4045.2278	5420.37676	3772.86533	4637.45171	4710.96226	4883.67383	5129.65167
6000	6300	4051.93653	4301.72677	5874.92225	5127.11701	6130.46069	3544.84327	3543.39313	3950.81343	4651.20429	5035.74069	3700.11656	5619.55367	5066.99401	3395.99257	3265.72939	2606.55557	3566.39504	4350.01431	4436.39459	4035.87295	4682.56642	4373.27114	4523.70614	4563.57571	4750.30111	3909.83682	3571.67045	4383.17719	6423.91178	4560.68427	3419.60626	4321.073	4127.74786	5349.40221	8940.61914	3452.8931	3915.70943	5561.10977	4507.12677	4655.72151	3902.97201	5885.08154	4284.94168	4927.45993	6278.49089	5761.06845
6300	6600	4121.06297	3777.12293	3728.01853	3843.55286	3801.75129	5027.38202	3958.56477	3180.80265	3231.23395	3437.31904	6611.85515	4541.67716	3510.82029	2759.47112	6389.9242	2475.60851	3817.7509	3998.58056	3470.62744	4747.58396	4309.76648	6915.46066	5086.60828	4406.41888	4856.30114	5038.38632	4626.45279	3926.86938	4718.16	3395.75412	4403.19425	3405.69016	3352.16883	3650.63152	4379.4388	3885.35591	4734.15416	5464.32975	5545.77443	5788.22122	5432.83138	5293.32196	4708.28942	3635.1841	3106.48576	4316.61487
6600	6900	4801.51658	5710.38617	4256.26396	2823.95843	4824.2333	6255.54378	3004.57918	2227.91911	4025.79393	3483.48894	4449.83322	5984.93703	2715.24869	3657.61809	5148.80065	4210.37828	3015.0993	5350.64933	7215.20691	6385.93029	4622.54995	3212.4962	4823.10972	4595.42974	4492.56927	2350.08064	3433.46538	2928.03246	4844.93968	3876.05088	2385.39266	3447.45607	3159.58024	3771.91372	3463.16455	2225.44979	3720.5878	3211.94094	3663.62212	3402.72723	4163.49055	3980.78262	4449.72318	5272.30327	5844.06592	5052.00291
6900	7200	3123.37888	2701.76064	3089.35855	3941.82415	2832.91815	8053.6807	1885.93061	4511.87735	3909.12543	3906.56746	5155.46633	1577.28354	2578.81818	5081.69909	5735.68509	2690.2718	3353.27675	3003.64549	1910.51886	3536.27222	3476.08789	4824.54025	4021.46828	2998.96443	3713.70117	3710.13553	3870.77872	2119.14424	3571.5324	2326.17666	3284.1738	4053.66704	4264.69004	1994.59034	2763.01961	6433.48838	3501.15004	5097.53284	3590.65142	5104.86227	3488.95975	4586.92392	3677.54155	3329.81101	6495.24398	2930.52006
