frame_start	frame_end	Left-Cerebral-White-Matter	Left-Cerebellum-White-Matter	Left-Cerebellum-Cortex	Left-Thalamus	Left-Caudate	Left-Putamen	Left-Pallidum	Brain-Stem	Left-Hippocampus	Left-Amygdala	CSF	Left-Accumbens-area	Left-VentralDC	Left-choroid-plexus	Right-Cerebral-White-Matter	Right-Cerebellum-White-Matter	Right-Cerebellum-Cortex	Right-Thalamus	Right-Caudate	Right-Putamen	Right-Pallidum	Right-Hippocampus	Right-Amygdala	Right-Accumbens-area	Right-VentralDC	Right-choroid-plexus	AirCavity	Skull	Vermis	Pons	CSF-ExtraCerebral	Head-ExtraCerebral	ctx-lh-bankssts	ctx-lh-caudalanteriorcingulate	ctx-lh-caudalmiddlefrontal	ctx-lh-cuneus	ctx-lh-entorhinal	ctx-lh-fusiform	ctx-lh-inferiorparietal	ctx-lh-inferiortemporal	ctx-lh-isthmuscingulate	ctx-lh-lateraloccipital	ctx-lh-lateralorbitofrontal	ctx-lh-lingual	ctx-lh-medialorbitofrontal	ctx-lh-middletemporal	ctx-lh-parahippocampal	ctx-lh-paracentral	ctx-lh-parsopercularis	ctx-lh-parsorbitalis	ctx-lh-parstriangularis	ctx-lh-pericalcarine	ctx-lh-postcentral	ctx-lh-posteriorcingulate	ctx-lh-precentral	ctx-lh-precuneus	ctx-lh-rostralanteriorcingulate	ctx-lh-rostralmiddlefrontal	ctx-lh-superiorfrontal	ctx-lh-superiorparietal	ctx-lh-superiortemporal	ctx-lh-supramarginal	ctx-lh-frontalpole	ctx-lh-temporalpole	ctx-lh-transversetemporal	ctx-lh-insula	ctx-rh-bankssts	ctx-rh-caudalanteriorcingulate	ctx-rh-caudalmiddlefrontal	ctx-rh-cuneus	ctx-rh-entorhinal	ctx-rh-fusiform	ctx-rh-inferiorparietal	ctx-rh-inferiortemporal	ctx-rh-isthmuscingulate	ctx-rh-lateraloccipital	ctx-rh-lateralorbitofrontal	ctx-rh-lingual	ctx-rh-medialorbitofrontal	ctx-rh-middletemporal	ctx-rh-parahippocampal	ctx-rh-paracentral	ctx-rh-parsopercularis	ctx-rh-parsorbitalis	ctx-rh-parstriangularis	ctx-rh-pericalcarine	ctx-rh-postcentral	ctx-rh-posteriorcingulate	ctx-rh-precentral	ctx-rh-precuneus	ctx-rh-rostralanteriorcingulate	ctx-rh-rostralmiddlefrontal	ctx-rh-superiorfrontal	ctx-rh-superiorparietal	ctx-rh-superiortemporal	ctx-rh-supramarginal	ctx-rh-frontalpole	ctx-rh-temporalpole	ctx-rh-transversetemporal	ctx-rh-insula
0	30	6.294720649719238	2.0632805824279785	2.737966775894165	3.239877700805664	0.32652461528778076	28.981674194335938	-19.722190856933594	7.68607759475708	-2.964202880859375	-6.5492753982543945	5.038149356842041	-26.40175437927246	-2.882553815841675	-26.130746841430664	8.54294490814209	20.362815856933594	6.13638973236084	0.32647350430488586	40.724945068359375	12.589018821716309	-14.58492374420166	13.70493221282959	1.6902791261672974	56.213768005371094	1.4641777276992798	24.586578369140625	4.696930885314941	2.904111623764038	-9.654322624206543	6.565427780151367	10.783262252807617	4.716986656188965	39.86265182495117	-1.37031888961792	10.232072830200195	4.1840949058532715	-11.058650016784668	16.758377075195312	-0.31075647473335266	-0.5448267459869385	13.019143104553223	-1.562125563621521	9.608541488647461	18.55179786682129	3.8445732593536377	1.9374662637710571	-17.024375915527344	-2.270059823989868	2.2592556476593018	16.753915786743164	-9.007172584533691	-22.224409103393555	13.27884578704834	-4.561153888702393	-2.820446729660034	0.6690458655357361	9.180453300476074	2.288281202316284	0.600277304649353	1.2126874923706055	-0.7621951103210449	4.140504360198975	53.508480072021484	-8.650284767150879	31.57689666748047	5.822843074798584	10.606115341186523	40.205589294433594	11.103370666503906	-13.909008026123047	62.14692306518555	7.989079475402832	-4.358644962310791	12.405304908752441	26.007122039794922	9.789958000183105	8.686075210571289	-12.204565048217773	9.614665031433105	-5.661703109741211	-17.46994972229004	-5.728005886077881	1.69485342502594	14.838420867919922	22.617263793945312	-15.679903984069824	1.8724403381347656	-10.071533203125	21.380165100097656	-7.307172775268555	-18.259977340698242	1.431329607963562	0.38299548625946045	-4.7421441078186035	-3.738382339477539	2.5770509243011475	-6.381646156311035	-14.13707160949707	137.1151885986328	4.982203006744385
30	60	311.08209228515625	363.575439453125	957.6201171875	1053.617919921875	1576.5087890625	1522.007080078125	614.0459594726562	1033.6053466796875	1131.4266357421875	1804.501220703125	212.06161499023438	4399.52490234375	1488.805908203125	886.1381225585938	385.20343017578125	631.6824340820312	920.5322265625	1429.374755859375	1242.019287109375	1644.225341796875	505.8091735839844	703.6228637695312	1067.8189697265625	1306.9873046875	864.1846313476562	3017.447265625	211.1747283935547	362.2677001953125	965.8274536132812	548.6390380859375	754.795654296875	343.9681091308594	1461.271484375	2386.942626953125	2453.115478515625	1979.666748046875	2603.505126953125	888.9739379882812	1308.949951171875	1416.84912109375	1350.149658203125	1158.3265380859375	2006.748046875	1571.76220703125	2419.754638671875	1464.4603271484375	1831.31201171875	1455.4620361328125	2182.422119140625	2095.014892578125	1617.4627685546875	2813.5263671875	1573.6824951171875	2432.831787109375	1804.47998046875	1330.43798828125	1622.4874267578125	2200.73046875	1924.8372802734375	1393.852783203125	2136.2666015625	1680.078125	2394.928955078125	2373.5966796875	3413.299072265625	2993.212646484375	1344.120849609375	2989.0302734375	1356.31884765625	1674.5316162109375	2459.421630859375	1189.105712890625	1436.0340576171875	1003.016357421875	2049.287841796875	1079.7886962890625	2021.4564208984375	982.7838134765625	1289.9447021484375	1081.448974609375	1926.79833984375	1309.14208984375	2304.260498046875	1238.9183349609375	1499.049560546875	2113.702392578125	1221.35009765625	1378.2117919921875	1715.31689453125	1255.6422119140625	1203.8857421875	1544.7564697265625	1786.23828125	1327.0635986328125	1999.2315673828125	1876.3109130859375	1996.3995361328125	1245.0721435546875	3779.373046875	1911.3101806640625
60	90	2192.480224609375	4236.8046875	9069.9345703125	10711.595703125	11493.1181640625	14327.5673828125	5386.740234375	6635.73828125	10601.7353515625	7636.26171875	1282.4456787109375	10088.5361328125	6891.7373046875	5060.49365234375	2361.93017578125	3720.04296875	8901.2548828125	10040.4443359375	13196.0576171875	14132.85546875	6604.447265625	8930.595703125	8982.7470703125	15849.6689453125	6862.51025390625	12042.6728515625	1255.5045166015625	2261.511962890625	9399.828125	7703.48193359375	3425.49755859375	2467.918212890625	11398.447265625	17353.009765625	16886.869140625	16564.755859375	13071.4853515625	8466.90625	11967.37890625	12699.6796875	14632.58984375	11204.916015625	14508.7431640625	13305.65234375	15652.10546875	12548.404296875	9473.951171875	11886.6513671875	16621.04296875	15805.6611328125	15106.03515625	21202.892578125	12529.05078125	15799.1728515625	14666.4697265625	13525.4970703125	12724.9990234375	17160.8359375	15114.8720703125	13015.3623046875	13239.1943359375	13636.126953125	18209.205078125	10635.0478515625	21282.7734375	14435.9423828125	13285.787109375	15232.40625	14055.841796875	18915.82421875	14218.8984375	8962.666015625	12472.1376953125	11700.0751953125	17531.2265625	12410.6474609375	14923.4541015625	13321.4833984375	13440.1533203125	11638.52734375	8733.46875	13801.0029296875	14441.486328125	14368.5302734375	14994.5986328125	18437.951171875	13440.0625	14911.75	14210.8720703125	12144.642578125	12031.4296875	15420.1591796875	13930.5126953125	12933.6435546875	12111.6123046875	13202.9521484375	18046.515625	11487.255859375	25192.30859375	12826.95703125
90	120	5065.00537109375	9883.91015625	20518.85546875	22824.8984375	27225.48046875	29061.720703125	12912.8505859375	13555.8330078125	20273.78125	14781.4111328125	2396.706298828125	30247.578125	15054.5546875	34769.7578125	5399.962890625	8820.7578125	20064.955078125	22421.0546875	27943.8828125	31620.056640625	11451.6572265625	19319.734375	17834.68359375	24692.32421875	16766.779296875	31354.212890625	2241.008544921875	4436.38330078125	16923.13671875	15605.90234375	5303.6748046875	4785.7744140625	28576.8828125	35313.97265625	32842.875	35879.66015625	30613.32421875	18670.587890625	26626.533203125	27503.169921875	28749.146484375	27776.353515625	32061.484375	31639.880859375	33546.5234375	27905.314453125	18464.75390625	27861.5546875	35126.81640625	31726.892578125	34452.9609375	46984.14453125	28763.861328125	32071.896484375	31768.353515625	31342.703125	27868.640625	37461.23828125	33081.2265625	29742.474609375	28057.21484375	30331.939453125	41162.984375	19445.080078125	48782.4453125	28847.833984375	28480.41015625	31488.4921875	32201.193359375	38015.33203125	27526.388671875	19360.353515625	29739.98046875	25866.06640625	34630.11328125	29735.322265625	32654.224609375	29264.87109375	31163.75390625	25461.791015625	14891.8955078125	27988.0625	32990.5390625	31639.634765625	37721.765625	44111.10546875	28959.724609375	34142.31640625	31533.9921875	27300.7890625	21720.771484375	33579.4609375	31611.37109375	29504.72265625	26100.5	29782.76171875	40158.3125	22110.28515625	59231.875	25496.7109375
120	150	7746.625	17161.8828125	33184.90234375	37171.33984375	43972.23828125	49234.390625	21687.71484375	20505.36328125	31643.544921875	23895.248046875	4137.2080078125	41024.4375	22962.658203125	31397.056640625	7909.01416015625	14224.5	32707.0546875	36472.18359375	46901.97265625	48555.140625	20097.119140625	31188.142578125	25549.494140625	37566.9140625	28484.150390625	46740.84375	2807.4501953125	6615.017578125	32915.9453125	25945.869140625	6771.72314453125	7302.10986328125	44316.203125	53877.36328125	55966.5390625	62658.0078125	44389.4921875	33022.4921875	45638.3828125	44599.69140625	49062.046875	46149.69921875	49491.5	47976.70703125	49923.1328125	44674.15625	29828.927734375	46677.1171875	56731.421875	50248.03515625	54675.82421875	81726.0234375	48562.57421875	51949.51171875	51654.45703125	50950.09375	45132.49609375	58673.04296875	53843.0859375	48367.80859375	44868.44140625	47462.953125	65668.8984375	30560.9453125	73761.6171875	41546.1796875	47659.171875	45156.09375	53082.796875	57001.67578125	40625.3984375	32089.333984375	47927.25390625	40917.0703125	50782.8984375	48585.0859375	49228.28515625	43737.76953125	48456.63671875	42573.60546875	27659.65625	46670.1328125	49191.046875	49610.66796875	56174.06640625	76361.515625	49876.65625	51770.92578125	52427.8203125	47305.80078125	36735.13671875	55091.13671875	50905.734375	48832.49609375	42630.28515625	48543.39453125	64908.71484375	33630.4453125	83290.1015625	41676.30078125
150	180	9310.6865234375	18883.51953125	41326.37890625	44973.2734375	51910.03515625	61892.42578125	20176.71484375	25715.0546875	37429.68359375	27001.388671875	3784.61962890625	49814.2734375	27843.70703125	45427.96875	9561.4267578125	17705.044921875	39887.28515625	43301.71875	59365.359375	56783.9140625	27538.2578125	37651.4140625	30263.5	38695.6953125	29566.787109375	57923.734375	2858.320556640625	7536.44580078125	36972.05859375	30233.556640625	5236.56787109375	8679.0458984375	54907.828125	62978.48046875	68517.9921875	71418.7734375	52178.6796875	39856.47265625	55295.51953125	53659.87890625	60174.15234375	56858.4375	58584.33203125	59855.80859375	60151.27734375	52804.22265625	35138.16796875	53093.67578125	66683.796875	59990.66796875	66047.7265625	106224.984375	58548.20703125	63657.6484375	61277.05078125	63774.23828125	53649.1875	70973.6015625	64126.19140625	59624.953125	53190.99609375	58764.46484375	78232.5546875	37515.05859375	81608.15625	48191.2890625	56349.70703125	56419.23828125	65597.03125	74644.296875	46436.37109375	40429.0	59943.12109375	51076.16015625	60584.10546875	60312.796875	59314.265625	54318.50390625	56431.26953125	51687.296875	30303.794921875	59997.35546875	59918.66015625	58549.62109375	66317.171875	90849.9609375	62344.59765625	62394.78515625	62625.0	57298.4453125	43889.5703125	67775.4296875	62525.91015625	60893.359375	51230.6796875	58169.484375	71704.8828125	39430.2265625	90177.1640625	44882.2265625
180	240	10089.189453125	20363.208984375	41612.3203125	44431.3046875	55613.90234375	61349.73828125	24217.08203125	26312.5859375	34823.61328125	28049.94140625	3910.687255859375	52207.265625	28302.1484375	38870.81640625	9946.5654296875	17913.392578125	40323.9296875	44209.640625	60222.29296875	59044.8828125	28450.037109375	34953.94140625	34486.20703125	45824.1796875	31665.236328125	54416.6953125	2516.610107421875	7656.65283203125	38491.609375	31217.998046875	3306.5673828125	8836.0615234375	55624.14453125	59275.71484375	69422.609375	75942.6796875	52193.13671875	41401.33984375	56125.05859375	54210.94921875	55609.59765625	58910.9609375	58836.10546875	61602.421875	60430.3984375	54830.5859375	36375.00390625	56711.4140625	66263.8046875	61954.9296875	66665.9296875	104486.8203125	61736.63671875	59568.84375	62101.265625	61758.4609375	55420.90625	72091.453125	65129.5546875	63623.5390625	52682.98828125	58904.546875	77915.09375	37944.82421875	82773.3359375	46478.53515625	56571.4453125	54679.65625	67253.171875	72652.4609375	41606.74609375	42373.73828125	60786.58984375	51889.69921875	61978.921875	62940.7421875	59032.94140625	54299.234375	58529.43359375	53045.90625	33423.8203125	58636.2890625	60642.92578125	59286.5703125	66538.890625	91466.203125	63389.953125	61676.11328125	63709.4765625	60061.63671875	43107.0390625	68524.5	63349.63671875	64952.109375	51093.375	59711.3046875	76331.1328125	39122.65234375	86951.9140625	44570.4453125
240	300	10369.49609375	20305.23828125	39028.2578125	42967.734375	53754.27734375	60198.61328125	22417.529296875	25215.875	32227.658203125	31258.84375	2684.8408203125	45654.70703125	29386.728515625	24997.421875	10163.12890625	17547.853515625	38628.82421875	42925.3203125	58566.73828125	57383.55859375	26733.15234375	31736.9140625	32499.919921875	39760.46875	29753.56640625	40554.3359375	2209.825439453125	7688.38720703125	36538.03515625	29082.296875	2508.828369140625	8873.859375	51890.2421875	56708.81640625	63523.0859375	69016.671875	45754.8203125	39844.7890625	53823.15234375	51024.03125	50698.91015625	55153.74609375	55536.6953125	57293.73046875	57630.8984375	51444.7890625	34305.578125	54653.19921875	61210.8046875	56681.69921875	61982.87890625	94418.7890625	58957.20703125	55183.078125	57411.9921875	58322.7890625	50426.90625	66381.2265625	60498.71875	58896.21875	49517.75	55983.2734375	72599.953125	38292.4921875	72599.5390625	42955.0234375	53306.92578125	49723.29296875	63852.58203125	65391.6953125	41243.8046875	41133.171875	56590.25	48413.203125	59955.7578125	59212.27734375	55953.38671875	53057.13671875	54469.44921875	50267.94921875	31559.271484375	55085.08203125	56009.90625	55777.27734375	61049.91015625	83195.734375	59272.98828125	54438.9609375	59615.3984375	55934.296875	41463.4453125	64290.1640625	58074.0703125	61418.25390625	47661.80859375	55532.19140625	72153.15625	38995.12890625	72229.1484375	41258.19921875
300	360	10576.6015625	20197.775390625	35833.390625	40650.70703125	50090.05859375	53993.4453125	24034.046875	23494.78125	29461.029296875	29255.458984375	2153.33154296875	44342.9765625	28375.298828125	18549.576171875	10350.39453125	18539.626953125	35128.09765625	41310.75390625	53403.5390625	52239.484375	26634.783203125	30706.388671875	30518.71484375	38931.96875	30207.6484375	32025.5703125	2022.310791015625	7559.90087890625	34099.5390625	27827.0234375	2218.649658203125	8948.7275390625	48548.8359375	49987.05078125	57266.9140625	65504.33203125	42709.59375	37072.68359375	48384.13671875	48175.84765625	45980.2421875	50316.8203125	50533.48828125	51335.03515625	51981.96875	48270.8515625	31221.427734375	50319.671875	54306.20703125	51361.8203125	56439.08203125	80275.1328125	52749.71875	49991.625	52140.66015625	52824.69140625	46330.23828125	60237.13671875	54333.5703125	53470.88671875	45515.203125	49959.12890625	69066.671875	35750.04296875	62709.85546875	43158.34375	48811.6484375	47788.2890625	54502.7734375	58290.7890625	37494.171875	38022.96875	51567.17578125	46594.1171875	52027.73046875	54178.953125	50166.59765625	48651.51953125	50582.68359375	45860.67578125	28290.822265625	50348.50390625	51555.51953125	51312.59765625	54753.42578125	74147.828125	54735.45703125	53353.59375	52974.4375	50909.14453125	35594.91015625	58906.484375	52764.54296875	55907.47265625	44611.87109375	49960.3203125	65943.9296875	36413.21484375	62600.6015625	38537.20703125
360	480	10939.3056640625	19089.587890625	31750.70703125	36298.91015625	42282.83203125	47190.359375	22203.306640625	21823.18359375	25634.291015625	27509.42578125	1564.2283935546875	42437.85546875	27602.68359375	8995.3583984375	10487.2021484375	17670.38671875	31236.37890625	36753.1484375	46014.59765625	45595.40234375	23352.193359375	26828.0859375	30226.193359375	35885.296875	27600.4609375	9090.896484375	1632.56494140625	7753.23046875	28545.90625	24989.923828125	1696.243408203125	8745.03515625	42410.04296875	44207.39453125	49119.4453125	54997.16015625	43912.6796875	33970.8203125	41742.88671875	41472.53515625	41394.5625	43514.05078125	43668.9296875	44611.6328125	44633.8984375	42016.2890625	30702.998046875	41913.73828125	46515.26171875	45239.109375	46972.02734375	68381.0546875	44943.3828125	43840.25390625	44944.0390625	44508.60546875	40299.40234375	51391.95703125	46407.44140625	46376.92578125	40643.15625	43084.0390625	61018.01953125	35354.328125	54507.01171875	36872.85546875	41771.53515625	42525.390625	46612.71875	49317.15234375	37591.10546875	34870.08984375	45786.49609375	40236.171875	44589.24609375	47639.6796875	43574.73046875	41449.33203125	43514.70703125	41041.2109375	26843.212890625	44058.9453125	43308.61328125	45144.46875	47494.56640625	61480.625	46617.31640625	44009.48046875	46311.515625	44582.046875	32072.669921875	50526.85546875	46140.07421875	47419.0390625	39651.90234375	42362.90234375	57536.9921875	33682.53515625	46933.23828125	35291.1796875
480	600	11272.96484375	19461.865234375	26955.08203125	32357.75	34754.078125	39456.6484375	20437.73046875	19128.09375	23015.326171875	28039.51953125	1112.321533203125	37076.87890625	24819.240234375	4838.65625	10921.4296875	18002.8046875	26656.611328125	32225.65234375	38582.0390625	38937.4296875	23641.521484375	24253.7421875	27465.177734375	32363.58203125	25376.037109375	10621.814453125	1562.22265625	7987.1123046875	24243.21875	23692.990234375	1829.32568359375	8684.6455078125	35529.91015625	35336.57421875	40291.91015625	44512.828125	36890.76953125	30791.0859375	34279.42578125	35812.11328125	33207.53125	36539.96875	36535.1640625	36876.6953125	38388.00390625	34977.67578125	25222.466796875	33810.08203125	37778.3359375	36485.45703125	39207.06640625	53758.33984375	37083.6640625	35588.88671875	37234.23046875	36628.69140625	34260.59765625	42628.83203125	38001.51171875	38595.09765625	34342.0625	35627.49609375	50297.08203125	32512.515625	41399.8671875	31337.0078125	32655.06640625	34827.71484375	36804.8203125	41175.90234375	32312.830078125	30148.234375	38113.27734375	34550.83984375	37353.6875	40032.328125	36139.2421875	34344.86328125	36929.94140625	35358.984375	24790.58984375	34814.55078125	34485.88671875	37421.3671875	38386.3828125	47759.16796875	38119.55078125	35853.265625	37731.51953125	37102.234375	27574.212890625	42500.5703125	37489.6484375	39037.75390625	34343.5234375	35256.1640625	47268.18359375	33358.73828125	37107.234375	30772.97265625
600	900	11544.525390625	18510.626953125	20898.056640625	26286.09375	26989.275390625	30623.291015625	21398.294921875	16151.525390625	18460.8984375	22800.125	713.5081787109375	27803.6953125	22788.6484375	-783.7052001953125	11175.1298828125	17173.767578125	20917.291015625	26717.3359375	28957.71484375	29442.86328125	21684.609375	19562.541015625	24557.779296875	27892.9296875	23148.447265625	3300.853271484375	1330.260986328125	7972.7041015625	19089.7890625	21037.203125	2147.766845703125	8621.908203125	27931.65625	26705.224609375	29737.392578125	33619.5625	31462.970703125	24644.080078125	26641.2578125	28481.87109375	26121.5625	27197.544921875	29011.86328125	29011.658203125	29575.642578125	27807.453125	21310.798828125	24571.3671875	28632.140625	27813.548828125	29492.982421875	38072.80859375	27630.095703125	26988.326171875	27671.544921875	27780.82421875	27152.00390625	32251.7578125	29007.849609375	29455.7734375	26974.384765625	26873.1640625	41120.890625	27131.67578125	30348.42578125	26757.158203125	26174.41796875	27770.298828125	28644.4140625	31118.576171875	27201.55859375	25237.212890625	29311.30859375	27561.45703125	28053.537109375	31504.0	28153.919921875	27288.990234375	28439.4921875	27832.603515625	19318.931640625	25683.470703125	25824.552734375	28776.09765625	29340.30859375	35464.0625	28667.048828125	27721.796875	28525.23046875	27679.271484375	21949.87890625	32643.5859375	28601.8984375	29934.408203125	27088.46484375	26822.927734375	38536.1796875	26871.58203125	25645.12890625	24806.9921875
900	1200	12008.49609375	17477.732421875	15568.8310546875	19995.71875	19069.62890625	22098.34375	21164.857421875	13271.9375	14603.748046875	18507.060546875	857.6201171875	19529.58203125	20199.50390625	-2147.597412109375	11499.9384765625	16529.646484375	15613.6083984375	20620.23828125	19614.7109375	21533.591796875	21042.439453125	15398.2783203125	20029.869140625	18952.853515625	20445.775390625	366.45452880859375	1140.3153076171875	8320.96875	14410.0078125	18400.05078125	2729.769287109375	8716.7236328125	20972.455078125	20280.29296875	22293.115234375	23949.6875	23936.724609375	20010.767578125	19606.82421875	22398.828125	19949.927734375	19879.080078125	21928.205078125	21873.69140625	22087.873046875	20974.939453125	16726.96484375	17004.041015625	21314.740234375	21371.314453125	21881.212890625	26324.431640625	19497.529296875	18924.23828125	20256.2421875	20866.0859375	20534.24609375	24009.08984375	20730.111328125	21344.865234375	20627.44140625	19916.275390625	33165.96875	23453.39453125	24022.587890625	21626.197265625	18912.626953125	21447.384765625	20923.919921875	22271.619140625	21078.623046875	19789.83984375	22135.37109375	21635.234375	23777.451171875	24232.587890625	21960.494140625	21298.54296875	21381.365234375	21714.828125	15970.6328125	17207.5546875	20682.291015625	21970.658203125	22513.77734375	25302.2578125	20810.125	21295.6484375	21182.755859375	19880.916015625	16796.0546875	24756.955078125	21198.03125	22604.265625	21091.638671875	20003.599609375	28396.689453125	20897.537109375	20327.248046875	20110.41796875
1200	1500	12057.10546875	16864.439453125	12485.119140625	16330.0966796875	13841.51171875	17814.19921875	19567.486328125	11076.8896484375	12413.5283203125	16072.9140625	1047.2738037109375	14593.3984375	17653.783203125	-843.2295532226562	11513.2626953125	15564.255859375	12775.1455078125	16287.611328125	15787.234375	17147.86328125	19341.56640625	12784.046875	16997.462890625	12181.3720703125	18009.529296875	154.2158203125	1066.599365234375	8445.5048828125	11065.291015625	17077.04296875	3118.13818359375	8757.6787109375	17902.974609375	17285.591796875	17927.240234375	21553.3359375	20412.994140625	17272.84765625	16441.908203125	19385.896484375	17768.95703125	17259.640625	18669.212890625	19934.75	18580.8125	17430.240234375	13806.15625	12370.3359375	17509.400390625	18053.353515625	18624.138671875	21294.296875	16549.1953125	16896.8515625	16259.376953125	17197.55078125	17258.97265625	20333.017578125	17140.74609375	18247.236328125	17510.486328125	16665.28515625	28889.10546875	20070.7265625	20795.69140625	18339.466796875	16056.259765625	18370.728515625	17461.908203125	19210.4921875	17387.568359375	17405.53515625	19160.75390625	18261.751953125	18528.30078125	21422.8046875	18572.904296875	18459.595703125	18621.283203125	17902.189453125	12155.1318359375	14311.58203125	17558.638671875	19342.689453125	19124.150390625	20636.818359375	17497.390625	17027.412109375	17653.8515625	17181.619140625	14707.26171875	21290.76953125	17769.138671875	19133.228515625	17859.791015625	16845.61328125	25673.57421875	18317.833984375	18255.357421875	17651.21875
1500	1800	11933.298828125	15655.8115234375	10512.2685546875	13460.822265625	11912.4951171875	14667.3095703125	17558.984375	9342.32421875	10749.16015625	13625.603515625	1647.6868896484375	9831.87890625	15738.7265625	-9842.400390625	11355.5341796875	14767.306640625	10789.6953125	14192.845703125	12085.6396484375	14166.4033203125	16788.48046875	11239.453125	13761.1142578125	10324.1201171875	16004.3505859375	-3128.3017578125	967.8834228515625	8553.5888671875	8917.392578125	15445.5849609375	3539.409423828125	8753.1298828125	16565.8828125	14874.642578125	16223.8310546875	18361.328125	17343.69140625	15886.8369140625	14338.779296875	17151.95703125	16223.294921875	15361.6767578125	16441.294921875	18234.150390625	16373.716796875	15084.2880859375	12418.275390625	11487.0146484375	15942.0341796875	15360.6435546875	15797.087890625	17658.9765625	13866.841796875	14268.4228515625	13873.4462890625	14442.7314453125	14317.4287109375	17669.138671875	14680.904296875	16398.20703125	14978.482421875	14450.17578125	25863.5	17548.123046875	18518.505859375	16546.58984375	14050.9404296875	14689.6298828125	15432.203125	17481.443359375	15304.15234375	15688.037109375	16651.828125	16395.4609375	17244.0	19575.138671875	16479.7734375	16562.658203125	15776.8076171875	16119.8291015625	10580.4755859375	10628.4072265625	15484.3056640625	17521.388671875	16361.9072265625	16926.884765625	14975.076171875	16120.57421875	14918.494140625	14955.6220703125	14417.29296875	18907.373046875	15298.2412109375	16568.04296875	15466.6474609375	14415.083984375	21237.779296875	16634.5234375	16920.556640625	15300.6923828125
1800	2100	11616.7978515625	14681.30078125	9219.44921875	11555.03515625	9851.2421875	12559.3154296875	15306.427734375	7586.88330078125	9640.263671875	11020.49609375	2016.596435546875	7919.43212890625	14184.37109375	-5938.056640625	11117.654296875	14238.6064453125	9287.5107421875	11325.65625	10647.8173828125	11700.9970703125	15339.62890625	9942.90234375	12067.2119140625	5893.26318359375	13773.82421875	-1049.951416015625	1021.5157470703125	8500.869140625	8500.2470703125	14179.357421875	4035.772216796875	8628.2529296875	14318.4384765625	12717.0712890625	14386.7822265625	16261.3837890625	14315.12890625	14345.6103515625	12952.916015625	15832.1904296875	13390.158203125	13918.375	14767.3994140625	16557.39453125	15778.52734375	14028.74609375	9951.7099609375	8854.796875	13927.24609375	14315.5009765625	14219.7646484375	16133.6845703125	12212.2646484375	12332.9248046875	12612.455078125	13752.10546875	13762.8115234375	15742.87109375	12989.6962890625	14669.5068359375	13287.53125	12986.986328125	24615.0703125	16040.18359375	18078.837890625	14864.5205078125	12719.6416015625	13419.0087890625	13832.958984375	14958.8125	13669.390625	14255.4951171875	15083.6357421875	15089.6787109375	15242.6533203125	17658.111328125	15037.7109375	15611.3603515625	13609.1298828125	14280.63671875	11073.83203125	9509.07421875	14856.8193359375	15706.1171875	14462.1982421875	15613.8525390625	13905.5634765625	13598.474609375	13674.16796875	12800.31640625	11341.978515625	17072.298828125	13268.154296875	14499.98828125	13865.5361328125	13082.9921875	21019.59765625	13395.283203125	15615.80859375	14095.9306640625
2100	2400	11249.7060546875	13967.341796875	7894.30859375	10609.02734375	9365.306640625	10778.955078125	15285.607421875	7431.7392578125	8692.755859375	8022.947265625	1584.5975341796875	2238.859130859375	12472.76171875	-783.7828369140625	10634.5859375	13688.84375	8201.064453125	10812.42578125	9060.0751953125	10967.1328125	13722.572265625	8922.634765625	9769.796875	5298.5703125	13026.5732421875	-1741.4693603515625	969.449462890625	8482.2431640625	7183.3388671875	12952.0380859375	3503.426513671875	8390.3896484375	13641.908203125	12113.5576171875	12649.90234375	14971.880859375	11532.4794921875	13763.2646484375	12611.1435546875	14220.7685546875	12917.578125	13082.412109375	13563.9345703125	16008.4091796875	12813.240234375	12429.1474609375	9940.39453125	5701.98583984375	13310.060546875	12873.5947265625	12981.099609375	15256.859375	11130.8583984375	11067.365234375	10875.4208984375	12316.3310546875	12494.3759765625	14686.6796875	11501.322265625	13502.1376953125	12617.18359375	12251.0537109375	23133.587890625	15857.4765625	17777.822265625	13740.6171875	12621.8876953125	12800.908203125	12855.841796875	15854.380859375	12598.2685546875	13760.7744140625	14493.53125	13867.0322265625	15322.92578125	16936.341796875	13683.7236328125	14876.294921875	12988.9189453125	13612.3603515625	9086.5234375	7243.068359375	13451.751953125	14735.8173828125	13318.546875	14719.861328125	12414.654296875	13551.7333984375	12149.6552734375	11407.078125	11102.708984375	16465.462890625	12294.390625	13706.2919921875	13286.392578125	12056.107421875	18711.564453125	13486.0859375	13716.1943359375	13132.5341796875
2400	2700	10878.369140625	12361.3046875	7205.20166015625	8401.6455078125	6262.7392578125	10350.8955078125	11903.55078125	6015.48974609375	7202.900390625	8330.7080078125	2014.412353515625	1399.63232421875	11617.7880859375	-1928.7236328125	10448.3232421875	11888.955078125	7223.9072265625	8666.23046875	7721.04150390625	9601.5146484375	13174.4345703125	7838.31884765625	9859.0302734375	5677.814453125	10906.4501953125	-4531.2392578125	874.1844482421875	8290.53515625	5200.26953125	11527.5458984375	4358.412109375	8263.802734375	13155.8486328125	9907.51953125	12110.9130859375	13382.89453125	11057.4951171875	13010.1650390625	11411.0205078125	13707.6640625	12980.5693359375	12736.5625	12313.33203125	15692.2919921875	11233.599609375	11328.2109375	8380.525390625	6279.5654296875	11964.1904296875	12592.88671875	11696.7724609375	12336.01953125	9569.8525390625	11055.083984375	9737.2158203125	10935.91015625	12621.0673828125	13228.0791015625	10185.66796875	12606.74609375	11203.5888671875	11215.4404296875	21114.1171875	13113.193359375	15172.880859375	12243.21875	10625.609375	10355.5400390625	11627.9921875	13847.798828125	10402.0703125	12607.869140625	13460.12109375	12614.5771484375	12522.359375	15665.6396484375	12787.912109375	14139.439453125	12303.193359375	12186.8232421875	7263.74169921875	6461.1708984375	12735.8642578125	14069.6328125	11700.193359375	13092.7451171875	10951.2880859375	11082.8623046875	10604.78515625	10290.4794921875	8880.1123046875	14793.1044921875	10960.3544921875	12577.7607421875	11526.1298828125	11204.4306640625	16756.390625	11612.771484375	15571.498046875	11589.8837890625
