frame_start	frame_end	Left-Cerebral-White-Matter	Left-Cerebellum-White-Matter	Left-Cerebellum-Cortex	Left-Thalamus	Left-Caudate	Left-Putamen	Left-Pallidum	Brain-Stem	Left-Hippocampus	Left-Amygdala	CSF	Left-Accumbens-area	Left-VentralDC	Left-choroid-plexus	Right-Cerebral-White-Matter	Right-Cerebellum-White-Matter	Right-Cerebellum-Cortex	Right-Thalamus	Right-Caudate	Right-Putamen	Right-Pallidum	Right-Hippocampus	Right-Amygdala	Right-Accumbens-area	Right-VentralDC	Right-choroid-plexus	AirCavity	Skull	Vermis	Pons	CSF-ExtraCerebral	Head-ExtraCerebral	ctx-lh-bankssts	ctx-lh-caudalanteriorcingulate	ctx-lh-caudalmiddlefrontal	ctx-lh-cuneus	ctx-lh-entorhinal	ctx-lh-fusiform	ctx-lh-inferiorparietal	ctx-lh-inferiortemporal	ctx-lh-isthmuscingulate	ctx-lh-lateraloccipital	ctx-lh-lateralorbitofrontal	ctx-lh-lingual	ctx-lh-medialorbitofrontal	ctx-lh-middletemporal	ctx-lh-parahippocampal	ctx-lh-paracentral	ctx-lh-parsopercularis	ctx-lh-parsorbitalis	ctx-lh-parstriangularis	ctx-lh-pericalcarine	ctx-lh-postcentral	ctx-lh-posteriorcingulate	ctx-lh-precentral	ctx-lh-precuneus	ctx-lh-rostralanteriorcingulate	ctx-lh-rostralmiddlefrontal	ctx-lh-superiorfrontal	ctx-lh-superiorparietal	ctx-lh-superiortemporal	ctx-lh-supramarginal	ctx-lh-frontalpole	ctx-lh-temporalpole	ctx-lh-transversetemporal	ctx-lh-insula	ctx-rh-bankssts	ctx-rh-caudalanteriorcingulate	ctx-rh-caudalmiddlefrontal	ctx-rh-cuneus	ctx-rh-entorhinal	ctx-rh-fusiform	ctx-rh-inferiorparietal	ctx-rh-inferiortemporal	ctx-rh-isthmuscingulate	ctx-rh-lateraloccipital	ctx-rh-lateralorbitofrontal	ctx-rh-lingual	ctx-rh-medialorbitofrontal	ctx-rh-middletemporal	ctx-rh-parahippocampal	ctx-rh-paracentral	ctx-rh-parsopercularis	ctx-rh-parsorbitalis	ctx-rh-parstriangularis	ctx-rh-pericalcarine	ctx-rh-postcentral	ctx-rh-posteriorcingulate	ctx-rh-precentral	ctx-rh-precuneus	ctx-rh-rostralanteriorcingulate	ctx-rh-rostralmiddlefrontal	ctx-rh-superiorfrontal	ctx-rh-superiorparietal	ctx-rh-superiortemporal	ctx-rh-supramarginal	ctx-rh-frontalpole	ctx-rh-temporalpole	ctx-rh-transversetemporal	ctx-rh-insula
0	30	32.082069396972656	43.04076385498047	33.91936492919922	28.694236755371094	16.398727416992188	33.99732971191406	32.75899124145508	30.981210708618164	43.01340866088867	76.30159759521484	21.458234786987305	15.953996658325195	19.878437042236328	11.27232551574707	32.93510055541992	28.071765899658203	25.828290939331055	55.15932846069336	37.700355529785156	18.445026397705078	34.63496017456055	28.292131423950195	17.621984481811523	15.686110496520996	42.081138610839844	15.262248039245605	18.683002471923828	28.16231918334961	24.62532615661621	47.32329559326172	33.09383773803711	29.23482894897461	24.894750595092773	41.21849060058594	27.980594635009766	26.611881256103516	20.259384155273438	35.9486198425293	30.239501953125	23.756155014038086	9.505146980285645	31.817567825317383	30.166549682617188	39.005489349365234	28.945158004760742	23.94722557067871	58.838741302490234	21.21396827697754	28.08656883239746	25.0819091796875	30.492677688598633	19.62132453918457	31.167997360229492	29.321475982666016	30.038137435913086	46.833518981933594	29.75098419189453	31.46040916442871	23.414737701416016	29.775131225585938	43.66581344604492	23.963497161865234	22.824758529663086	58.16688919067383	45.79486846923828	53.76276779174805	28.504859924316406	48.90184020996094	19.902494430541992	30.534204483032227	86.7176513671875	26.280929565429688	33.79874801635742	33.5760383605957	11.623371124267578	28.93787384033203	56.205589294433594	35.003570556640625	32.23897171020508	36.620323181152344	29.60356330871582	18.98955726623535	31.049644470214844	35.59942626953125	84.61042022705078	44.92837142944336	43.332664489746094	12.429478645324707	40.11222457885742	28.656702041625977	18.078371047973633	25.505746841430664	35.23221206665039	28.70598793029785	26.60752296447754	46.279815673828125	44.98289489746094	16.682703018188477	55.566444396972656	63.67299270629883
30	60	2269.204833984375	2600.53759765625	3110.669189453125	3000.745361328125	2851.8017578125	3487.6943359375	2786.07421875	2901.1064453125	3346.938232421875	2689.64697265625	1987.368896484375	2943.50048828125	2639.644287109375	2825.398681640625	2318.0517578125	2492.975341796875	3019.470947265625	3185.448486328125	2818.326904296875	3318.9755859375	2264.40576171875	2948.0185546875	2692.83447265625	3932.329833984375	2714.08154296875	2788.304931640625	714.3784790039062	862.7567749023438	3163.221435546875	2723.1259765625	2736.114990234375	827.4458618164062	2749.98193359375	3817.94384765625	3537.39501953125	3963.300537109375	3235.770751953125	2720.710693359375	3165.173095703125	2801.466796875	3777.8525390625	2947.10546875	3462.328857421875	3752.227294921875	3905.753662109375	3079.227783203125	3356.86474609375	3055.199951171875	3851.764404296875	3263.63818359375	3697.22216796875	4217.7158203125	3275.611572265625	3190.897216796875	3264.28857421875	3602.25341796875	4147.80859375	3392.260986328125	3604.87939453125	2799.855224609375	3147.9140625	3159.04736328125	3337.71728515625	2527.697265625	3632.021240234375	3648.436279296875	3401.406982421875	3604.373779296875	3442.55810546875	4135.45458984375	3166.65576171875	2921.17919921875	3102.5224609375	2702.126708984375	4039.462890625	3261.630126953125	3921.206298828125	3748.96728515625	3682.74755859375	2750.437255859375	2980.509521484375	3323.968994140625	3742.857177734375	3281.487548828125	3458.828857421875	4351.47705078125	3119.759765625	3681.47265625	3254.1123046875	3804.55517578125	3306.475830078125	3608.75830078125	3295.158935546875	2909.14453125	3118.330810546875	3056.48974609375	4069.9423828125	2371.925048828125	4705.1298828125	3714.235595703125
60	90	9134.740234375	10515.421875	12840.4541015625	12468.1103515625	12296.7275390625	14158.53125	9536.0	10509.4296875	11271.7529296875	9752.9873046875	7887.51123046875	12280.99609375	10304.1748046875	9700.2734375	9364.9677734375	10229.0869140625	12719.1123046875	13614.0283203125	12269.9794921875	14329.1142578125	10579.0859375	11246.5283203125	9593.8291015625	12686.1767578125	10281.3515625	8948.1494140625	2534.5087890625	3080.49365234375	13407.640625	10201.8623046875	10193.775390625	3054.9716796875	12269.2490234375	12232.4736328125	14090.5703125	16136.0986328125	10791.0078125	11164.9580078125	12795.7060546875	11329.1435546875	13976.4326171875	12172.455078125	13036.36328125	15560.287109375	14173.1298828125	11732.6845703125	9805.728515625	11861.03125	14133.013671875	13155.681640625	14347.357421875	17732.12890625	12908.8466796875	14795.376953125	13240.96875	14473.55078125	15205.8671875	13673.7724609375	13481.1650390625	12185.2275390625	11469.033203125	12456.673828125	14791.9326171875	8860.0185546875	14454.216796875	13214.451171875	13562.0732421875	12148.6083984375	13446.2001953125	17162.07421875	9730.3271484375	11745.85546875	12988.5390625	11587.4697265625	13850.244140625	13494.9765625	13764.025390625	15403.2099609375	13313.2109375	11630.6044921875	10520.91015625	12830.982421875	14808.10546875	12545.6328125	13439.119140625	18420.720703125	12593.4638671875	14673.21875	13420.0498046875	14860.4287109375	12988.7490234375	14621.3134765625	13703.1552734375	12410.783203125	12112.6435546875	13028.65234375	15615.392578125	9026.40234375	16029.8681640625	13220.4892578125
90	120	16524.921875	18558.15625	23140.912109375	23866.755859375	21645.404296875	25475.79296875	17470.146484375	18521.025390625	20532.919921875	16711.494140625	13554.6572265625	20681.375	18717.853515625	18109.21484375	17096.15234375	18036.107421875	23046.181640625	24426.009765625	22155.24609375	24924.328125	19178.515625	19263.228515625	16849.30859375	22779.69140625	18857.322265625	13332.5595703125	4198.6240234375	5370.7275390625	23270.32421875	19002.2734375	17451.689453125	5074.0625	22145.08203125	22731.560546875	25369.498046875	27809.61328125	17068.62109375	20304.572265625	23035.666015625	20437.361328125	24259.740234375	22284.1171875	23195.677734375	27166.087890625	25218.451171875	21316.935546875	19192.693359375	22329.42578125	25874.798828125	23223.43359375	26370.46875	29857.162109375	22839.8828125	24662.48828125	24177.287109375	25871.013671875	26987.916015625	24439.75	24540.841796875	21821.66796875	21718.275390625	22779.115234375	26793.634765625	16863.009765625	27664.17578125	22159.93359375	22779.017578125	21177.701171875	25774.98046875	29788.818359375	17944.904296875	21109.078125	23546.5703125	20775.5078125	25755.62109375	23538.712890625	24671.158203125	27143.568359375	23775.7734375	21594.7421875	21065.208984375	22908.919921875	25088.6171875	24153.724609375	25659.216796875	32638.80078125	22278.3046875	25547.30859375	23567.044921875	26189.408203125	22489.716796875	26244.96875	24583.732421875	22466.630859375	22187.298828125	22965.994140625	28529.3828125	16505.6015625	29159.79296875	21684.369140625
120	150	24132.12890625	27409.99609375	33152.6640625	34195.328125	31389.91015625	36929.20703125	26063.46484375	26162.408203125	28036.03515625	25456.244140625	19310.1796875	32568.294921875	27304.146484375	24287.73046875	24795.48046875	27357.35546875	33663.9765625	35898.30078125	30993.798828125	38023.01171875	26676.3046875	28026.91015625	26796.841796875	35777.3125	27238.052734375	20084.62890625	5690.841796875	7552.89306640625	34328.32421875	27094.5625	24600.390625	6985.8828125	32553.212890625	32178.771484375	37084.9453125	41841.96484375	23990.82421875	29879.861328125	33789.41015625	29926.59765625	36300.93359375	32920.78515625	32901.046875	39613.65625	35324.515625	31523.724609375	27090.904296875	31258.123046875	36843.19921875	33753.4375	37194.23828125	45407.0546875	32994.78125	37340.453125	34901.87890625	38008.04296875	36956.453125	36099.60546875	35904.54296875	31782.669921875	31236.794921875	32813.3359375	37353.09375	25322.81640625	39776.89453125	30692.46875	33410.76171875	31214.4375	37104.33203125	42837.93359375	25644.310546875	31242.0859375	34036.953125	31028.36328125	36462.26953125	34645.23046875	34609.6484375	39478.15234375	34771.44921875	31456.720703125	29071.93359375	32610.71875	37319.75	34265.28125	36368.4296875	45222.125	32659.505859375	37515.578125	34605.53125	38507.06640625	31813.59765625	37993.80078125	35527.8359375	31539.125	32266.33984375	33701.9921875	39898.19921875	23800.48046875	41708.33984375	31667.46875
150	180	26411.275390625	29737.537109375	36530.625	37881.1171875	35492.9375	41432.00390625	28829.29296875	28092.943359375	29525.70703125	28684.611328125	20776.345703125	34328.875	29755.447265625	25411.46484375	27049.9921875	29429.890625	36964.3203125	39532.4921875	36386.578125	41921.35546875	30259.87890625	29830.564453125	27906.64453125	37471.5703125	28458.248046875	21107.1640625	5997.18359375	7899.26025390625	36456.90234375	29868.5078125	25761.9765625	7375.31640625	34793.25390625	33392.0859375	40888.48828125	43953.74609375	24712.28125	32986.0625	37171.7421875	32942.6171875	37763.625	35629.80078125	35129.41796875	44077.828125	38112.12109375	34901.51953125	30665.96484375	34842.68359375	40154.8984375	37781.44921875	40691.11328125	47899.21875	36666.609375	40252.51171875	38480.73046875	41157.71875	40618.23046875	39427.7421875	38581.4140625	35318.75390625	33948.5234375	36403.99609375	40996.2109375	27414.533203125	41817.5625	32471.11328125	37716.4609375	33988.19921875	40326.64453125	45229.78515625	28789.60546875	34969.26171875	37192.21875	33845.1015625	40032.3125	37928.1796875	36814.140625	40835.39453125	36416.15234375	34741.71484375	31718.80078125	36957.40625	40084.5859375	37877.60546875	40700.890625	49250.68359375	35997.234375	40540.125	37611.45703125	40554.77734375	35355.78125	41498.93359375	38526.35546875	35240.34375	35418.04296875	36835.37890625	44334.87109375	27691.591796875	43540.265625	33529.15234375
180	240	26385.6875	30403.4296875	36229.5703125	37717.60546875	36423.90625	40979.2890625	27765.623046875	27585.8125	28861.869140625	27456.435546875	20129.134765625	37991.20703125	28762.1875	22075.294921875	27019.689453125	29751.82421875	36708.5234375	39954.19921875	35253.87109375	42702.09765625	30206.755859375	30270.361328125	27522.54296875	37710.59765625	28422.939453125	20692.98828125	5714.1875	7994.380859375	37329.9375	30145.27734375	25149.349609375	7449.60546875	35652.62890625	33153.12890625	38851.515625	42923.65625	24645.19140625	33007.26171875	36642.875	32422.439453125	38266.75390625	34906.6953125	35263.765625	41771.8984375	37196.2734375	34485.06640625	28823.5078125	35245.7890625	39031.7734375	36856.75	40328.84375	46013.14453125	36379.9765625	39325.890625	37609.4921875	40580.5546875	39758.85546875	38532.3125	37717.234375	34498.76953125	33916.71484375	35568.8125	37975.9765625	26102.484375	41754.1875	32351.26171875	37902.58984375	33093.390625	38806.3125	44146.27734375	27454.12890625	33720.5390625	36464.8359375	34347.98046875	38104.5546875	37095.95703125	35553.1328125	41016.59765625	36479.5703125	34627.48828125	31504.005859375	36884.08203125	38804.8515625	37031.48046875	38761.015625	46682.58984375	35281.12890625	39359.73046875	36833.78125	40202.359375	34360.19921875	40638.1171875	37840.93359375	34542.43359375	34590.00390625	36659.33984375	42417.41015625	27808.408203125	43759.35546875	33532.0703125
240	300	25364.904296875	28987.416015625	34262.51953125	35981.58203125	33504.01171875	41288.49609375	29308.119140625	26399.65625	27085.328125	27012.953125	18714.302734375	33917.51953125	28150.55078125	18941.345703125	25975.181640625	28405.50390625	34606.03515625	37660.54296875	33980.85546875	41123.875	29986.119140625	27816.693359375	27441.5625	34403.44921875	27238.408203125	18892.447265625	5533.12158203125	7837.3291015625	35534.54296875	28902.44921875	23479.24609375	7510.0322265625	33463.93359375	32040.33203125	36533.58984375	41213.80859375	23852.025390625	31220.1640625	34879.9609375	31239.150390625	34534.23046875	33087.80078125	32989.921875	38920.24609375	35854.41015625	32840.04296875	29334.693359375	31972.708984375	36598.4921875	35356.33984375	37811.609375	42565.37890625	34078.90625	37043.7890625	35020.8828125	37699.3671875	36982.90234375	36657.2890625	35580.1484375	32617.125	32370.435546875	34111.6328125	36739.3359375	25578.162109375	39391.64453125	30883.810546875	36653.6328125	30554.8125	35897.19921875	41132.06640625	26373.109375	32442.08984375	34928.5859375	32294.646484375	36144.62109375	35064.359375	34054.66796875	37825.265625	34715.80859375	33421.40625	29775.951171875	33574.09765625	36190.15234375	34617.2890625	36717.9453125	42058.109375	32820.8828125	36228.6640625	34578.71484375	37518.40234375	32899.91015625	37998.5078125	35550.3125	32362.357421875	32978.87109375	33855.3125	41164.4609375	26948.2421875	39590.96875	32462.869140625
300	360	23895.5234375	27897.728515625	31965.8671875	33926.515625	31665.400390625	36922.70703125	27173.40625	25539.484375	25999.55078125	24597.765625	17822.103515625	32547.296875	26992.509765625	18071.09375	24410.40625	27322.966796875	32530.4296875	36741.7890625	31974.1953125	37593.59765625	29294.837890625	26819.63671875	26780.171875	32353.40625	25642.65234375	17650.61328125	5337.515625	7801.017578125	32055.96484375	27449.51953125	21742.3359375	7488.916015625	31501.62109375	29321.87109375	32570.84765625	36687.95703125	21898.345703125	29976.783203125	32407.541015625	29041.53125	31855.7109375	30323.513671875	30318.8828125	35305.45703125	33183.56640625	30859.025390625	26147.04296875	29583.875	33348.83203125	31456.38671875	34755.953125	37522.11328125	31852.640625	34198.6171875	32704.2578125	34679.828125	34803.98828125	34004.48046875	32580.484375	29992.015625	30913.728515625	31254.248046875	34250.39453125	25680.560546875	35982.73828125	29750.943359375	33546.25390625	29737.37109375	32604.634765625	37063.57421875	25037.03125	30733.458984375	32156.748046875	30245.873046875	32052.775390625	32128.541015625	30767.44140625	34293.6953125	32096.72265625	30872.705078125	28290.875	31507.431640625	33325.0390625	30728.67578125	32434.876953125	37781.22265625	30525.564453125	34911.1953125	31932.1328125	34012.68359375	30352.955078125	34938.64453125	32405.341796875	29978.779296875	30762.216796875	31561.138671875	37945.44921875	26003.373046875	36173.07421875	30154.27734375
360	480	22101.755859375	25523.490234375	28668.26953125	31658.728515625	28245.552734375	34268.4765625	26675.39453125	23080.837890625	23676.41015625	23794.173828125	16158.05859375	29853.40234375	25316.982421875	16214.6015625	22486.853515625	24934.37890625	29221.345703125	33605.82421875	28032.103515625	34850.84765625	26442.263671875	24829.083984375	24937.98046875	30781.884765625	24654.9140625	15136.865234375	5149.83154296875	7600.80908203125	29106.5234375	25498.900390625	19497.66796875	7552.69873046875	28887.123046875	26833.99609375	29106.580078125	32201.92578125	20756.974609375	27309.046875	28550.994140625	27074.796875	28442.921875	27233.125	27318.357421875	31185.908203125	28708.013671875	28362.994140625	24967.419921875	27092.181640625	29748.755859375	28316.326171875	31152.875	33036.35546875	28324.193359375	29910.421875	29119.9765625	30665.306640625	30447.859375	30198.34765625	28966.177734375	27033.3828125	27976.173828125	28201.662109375	30493.45703125	23433.513671875	31851.2890625	27073.00390625	29725.759765625	26493.171875	28718.658203125	32283.791015625	22371.564453125	28025.822265625	28601.619140625	27526.287109375	29384.58984375	28634.87109375	27678.466796875	30386.921875	28747.6640625	27717.927734375	26591.146484375	28022.181640625	29395.76171875	27228.240234375	28818.03515625	32916.75390625	27289.580078125	30002.642578125	28096.12890625	30369.681640625	28398.4296875	30955.58203125	28760.6953125	27153.361328125	28301.38671875	28216.22265625	33873.91015625	23338.669921875	32569.1875	27885.509765625
480	600	20080.302734375	23438.654296875	25210.185546875	28212.0859375	24806.720703125	30767.5859375	25194.07421875	21195.986328125	21558.654296875	22556.294921875	14386.8955078125	26590.111328125	22883.708984375	13076.318359375	20410.9140625	23095.572265625	25447.94921875	29233.87890625	24180.169921875	30760.94921875	26394.513671875	21976.701171875	23316.634765625	27115.29296875	22733.6953125	13812.6884765625	4797.4794921875	7413.37060546875	25542.068359375	23238.947265625	16825.876953125	7439.734375	25255.205078125	23314.74609375	25017.5625	27728.841796875	18384.97265625	24231.185546875	24885.626953125	23971.6640625	24539.486328125	23534.912109375	23714.388671875	27289.9609375	25447.673828125	25177.17578125	22488.0234375	23336.89453125	25651.744140625	24936.166015625	26657.501953125	27729.232421875	24541.84375	26448.12109375	25201.126953125	26625.521484375	26312.6953125	25821.142578125	25055.359375	23642.400390625	24797.791015625	24534.0703125	26342.3984375	22039.1875	27376.158203125	24335.8203125	26122.96875	23398.71875	25205.75390625	27888.427734375	21118.33203125	25195.443359375	24612.41015625	24334.068359375	24795.482421875	24985.462890625	23926.267578125	26464.423828125	25126.3359375	24159.12890625	23041.298828125	24784.443359375	25154.052734375	22959.642578125	24178.087890625	27715.5390625	23358.341796875	25552.38671875	24065.029296875	26182.6953125	25019.138671875	26313.00390625	25056.509765625	23479.09375	24591.89453125	24548.77734375	28800.494140625	21180.02734375	26898.224609375	24275.7265625
600	900	17846.77734375	20753.537109375	20673.974609375	23717.771484375	19859.857421875	25709.251953125	23180.41015625	18664.900390625	19011.890625	20419.48828125	12472.1123046875	22812.234375	20673.025390625	12097.58984375	18064.94140625	20469.982421875	20948.455078125	25301.328125	19704.484375	25149.94921875	23379.185546875	19359.076171875	20676.4375	22696.60546875	21203.7734375	11838.50390625	4665.66259765625	7340.61376953125	21188.794921875	20897.412109375	14004.078125	7550.18310546875	21497.87890625	19902.08984375	20577.453125	23033.23046875	17138.22265625	20870.05859375	20661.79296875	20434.5390625	20517.763671875	19719.30078125	20119.77734375	22511.13671875	20892.44140625	20903.8125	19031.005859375	19277.392578125	21189.654296875	20511.05859375	22287.845703125	22813.73828125	20215.552734375	21688.044921875	20822.66796875	21625.55078125	21866.376953125	21597.54296875	20465.697265625	19436.919921875	21114.19921875	20281.771484375	21452.537109375	19309.9140625	23243.29296875	21305.3671875	22152.81640625	19952.50390625	20289.615234375	22667.03125	17786.900390625	21619.01953125	20398.423828125	20606.69921875	20730.689453125	20777.9765625	20278.05859375	22022.59375	21007.578125	20367.9765625	20546.77734375	20135.158203125	20907.884765625	19494.869140625	20361.1015625	22517.017578125	19527.24609375	21519.74609375	19862.8359375	21232.919921875	20647.55078125	21657.51171875	20364.947265625	19221.556640625	20857.087890625	20058.302734375	23039.98828125	19190.712890625	21997.376953125	21181.142578125
900	1200	15941.61328125	17865.84765625	16291.7548828125	19568.609375	15639.015625	20689.94921875	20743.435546875	15739.2783203125	15852.169921875	17259.125	10741.3701171875	18073.896484375	18290.181640625	10940.6357421875	15975.654296875	17855.455078125	16376.12109375	20393.373046875	15462.724609375	20236.748046875	20218.125	15971.3955078125	17366.21875	18051.74609375	18446.92578125	10113.423828125	4485.775390625	7388.79052734375	16734.46875	18319.525390625	11641.9853515625	7632.57666015625	17917.16796875	16519.54296875	16970.275390625	18573.662109375	14849.83984375	17865.7734375	16758.27734375	17590.806640625	16900.236328125	16341.17578125	16940.87890625	18598.556640625	17285.119140625	17390.25390625	16452.59765625	16006.275390625	17379.3984375	17279.2578125	18232.435546875	18657.26171875	16478.498046875	17833.130859375	17148.59765625	17778.67578125	17660.716796875	17814.88671875	16537.818359375	15638.1376953125	17759.794921875	16602.455078125	17349.13671875	16156.7353515625	18966.23828125	17751.49609375	18252.611328125	16902.37109375	16316.74609375	18395.345703125	15488.771484375	17859.62890625	16608.69921875	17303.810546875	17098.33203125	17126.931640625	17061.078125	17823.3984375	17639.396484375	16731.2890625	16721.55859375	16399.658203125	16938.884765625	16521.08203125	16831.953125	18618.166015625	15709.376953125	17806.41796875	16114.8125	17433.87890625	17299.505859375	17661.103515625	16674.78125	15656.4619140625	17111.810546875	16427.19921875	18667.380859375	16478.87109375	18618.5625	17695.25390625
1200	1500	14532.96484375	15639.853515625	13291.9521484375	16334.47265625	12906.736328125	16906.646484375	17889.51953125	13616.779296875	13633.6318359375	14978.1298828125	9652.744140625	15539.181640625	16523.923828125	9859.1650390625	14567.93359375	15606.0107421875	13298.0185546875	16586.37890625	12546.376953125	16861.265625	18038.1953125	13848.390625	14916.275390625	14698.9130859375	15888.791015625	10047.7529296875	4410.1982421875	7503.787109375	13362.8125	16228.0263671875	10070.255859375	7689.15185546875	15379.80859375	14620.220703125	14554.017578125	15996.40234375	12878.4814453125	15510.345703125	14302.521484375	15422.99609375	14779.1669921875	13959.455078125	14883.7197265625	16078.068359375	14710.0615234375	15010.9931640625	14288.2275390625	13504.8955078125	14812.818359375	15405.654296875	15757.6015625	16282.2890625	14005.705078125	15382.5966796875	14445.1162109375	15059.3671875	14811.4443359375	15389.0185546875	14318.4931640625	13360.9931640625	15186.333984375	14264.171875	15186.8720703125	14222.349609375	15956.876953125	15564.8203125	15709.115234375	14599.56640625	13977.4052734375	15744.7265625	13571.4677734375	15727.4208984375	14346.5791015625	14992.046875	14951.9443359375	14880.1845703125	14945.53125	15400.8623046875	15088.646484375	14363.98828125	14414.078125	13853.3955078125	14829.615234375	14580.11328125	14560.1064453125	16053.7099609375	13293.2373046875	15048.9365234375	13672.0634765625	14934.4208984375	14800.880859375	15001.9169921875	14112.3876953125	13215.947265625	14570.5634765625	14107.5048828125	15586.2275390625	14381.0771484375	15398.591796875	15041.59765625
1500	1800	13361.6474609375	13963.2890625	10936.111328125	13704.3544921875	10798.2333984375	14494.51953125	16516.65234375	11953.2841796875	11826.8486328125	13318.5576171875	8609.814453125	12246.96875	14170.3642578125	8926.478515625	13305.9150390625	13788.755859375	10970.267578125	13820.576171875	10675.1083984375	14208.7177734375	15794.466796875	11726.16796875	12167.5830078125	12543.05859375	13852.48046875	8369.47265625	4270.10888671875	7463.11328125	11235.755859375	14534.5634765625	8958.1875	7629.443359375	13375.6396484375	12872.4345703125	12826.2138671875	13978.6806640625	11494.8935546875	13915.369140625	12815.4765625	13872.6162109375	13382.4716796875	12697.3466796875	13552.083984375	14172.37890625	13072.455078125	13133.3994140625	12568.4384765625	11754.404296875	13139.1064453125	13717.36328125	14146.14453125	14382.1396484375	12601.2783203125	13288.7705078125	12774.8046875	13325.2900390625	12963.6513671875	13705.787109375	12290.3349609375	11736.5625	13307.1572265625	12579.595703125	12619.5732421875	12003.2734375	13843.126953125	13676.1162109375	13585.0322265625	13121.419921875	12090.62109375	13769.2587890625	11755.23828125	13852.3369140625	12497.421875	13405.40625	13206.5380859375	13171.9091796875	12982.87109375	13618.6748046875	13144.3017578125	12484.6591796875	12328.6103515625	12684.02734375	13141.1728515625	12733.7685546875	12558.1220703125	14389.41015625	11618.798828125	13489.287109375	11780.5478515625	13065.3408203125	12646.79296875	13037.8076171875	12237.5078125	11650.912109375	12569.9306640625	12191.072265625	14002.587890625	12311.166015625	13471.85546875	13212.5048828125
1800	2100	12324.5849609375	11984.8134765625	9280.7275390625	11273.9794921875	9909.861328125	12905.3037109375	13752.5673828125	10132.36328125	10573.7392578125	11556.5390625	8193.54296875	11033.939453125	12053.4619140625	8367.064453125	12176.4599609375	12015.4833984375	9292.1767578125	11610.001953125	9562.7138671875	12285.09375	13699.701171875	10400.6357421875	10499.9296875	10376.5244140625	12590.8330078125	7891.05322265625	4161.888671875	7194.43994140625	8785.5390625	12687.2587890625	8297.0498046875	7207.17236328125	12384.3037109375	11402.2109375	11280.779296875	12765.1728515625	9952.3857421875	12479.716796875	11270.2958984375	12426.37890625	11868.4580078125	11310.306640625	11731.12109375	12843.861328125	11867.2138671875	11803.73046875	10839.0830078125	10377.9287109375	12114.2197265625	11907.1064453125	12785.5302734375	12928.0869140625	10973.9833984375	12095.796875	11330.240234375	12019.0390625	11833.9638671875	12078.5205078125	10991.541015625	10497.333984375	11902.0283203125	11232.150390625	11143.21484375	11385.0634765625	12480.091796875	11986.5322265625	12389.955078125	11371.0078125	10938.3134765625	12202.935546875	9773.2451171875	12165.31640625	11508.6123046875	11713.5546875	12097.990234375	12034.8310546875	11484.0634765625	12502.109375	11636.435546875	11387.384765625	10662.21484375	10804.0107421875	11722.1552734375	10975.4384765625	11494.8779296875	12742.412109375	10526.11328125	11805.205078125	10704.4013671875	11888.642578125	11349.66015625	11892.28515625	10890.443359375	10482.2431640625	11435.017578125	11068.19921875	11783.5068359375	11250.0244140625	12010.7998046875	11802.0625
2100	2400	11366.775390625	10801.759765625	7870.78271484375	9959.70703125	8522.09765625	11298.51953125	12211.53515625	8826.9658203125	9001.9375	9462.57421875	7201.44677734375	8839.166015625	10863.7431640625	7116.1865234375	11318.580078125	10678.5576171875	8007.716796875	9841.4326171875	7913.04150390625	10717.771484375	11766.9716796875	8847.3916015625	9586.6513671875	8268.16796875	10584.1552734375	7111.5263671875	3991.134521484375	6919.4638671875	7891.50927734375	11252.150390625	7541.20458984375	6902.60009765625	11235.7353515625	10084.95703125	10339.6171875	11190.7197265625	9146.03125	11488.099609375	10525.2236328125	11354.431640625	11209.666015625	10535.064453125	10676.0068359375	11576.0517578125	10626.9287109375	10895.611328125	9781.8408203125	9076.986328125	10995.904296875	11275.7333984375	11669.654296875	12172.0087890625	10210.314453125	11053.173828125	10362.2021484375	10738.1669921875	10693.5595703125	11222.3369140625	9851.333984375	9394.1435546875	10969.5810546875	10389.771484375	10283.3564453125	9506.3076171875	11248.33984375	10816.5341796875	11238.427734375	10282.609375	9760.44921875	11222.1220703125	8774.158203125	11282.2490234375	10202.705078125	10678.5322265625	10832.162109375	10973.7001953125	10318.22265625	11066.27734375	10655.14453125	10076.81640625	10436.677734375	9570.4130859375	10783.98046875	9860.1025390625	10553.388671875	11735.2900390625	9330.44921875	10555.5869140625	9407.1591796875	10683.072265625	10425.76171875	10749.6708984375	9868.767578125	9207.029296875	10100.201171875	9965.8779296875	11214.71484375	9889.578125	10703.6435546875	10815.234375
