time	whole_blood_radioactivity	plasma_radioactivity	metabolite_parent_fraction	AIF
0	0	0	1	0
1.2002000333388898	0.8098916719905431	1.1602143516583812	0.997856785654752	0.18708497622981493
2.4004000666777796	1.6197833439810863	2.3204287033167623	0.995713571309504	0.37416995245962986
3.6006001000166696	2.4296750159716294	3.4806430549751433	0.993570356964256	0.5612549286894448
4.800800133355559	3.2395666879621725	4.640857406633525	0.9914271426190079	0.7483399049192597
6.001000166694449	4.049458359952716	5.801071758291905	0.9892839282737599	0.9354248811490747
7.201200200033339	4.859350031943259	6.9612861099502865	0.9871407139285119	1.1225098573788896
8.401400233372229	5.669241703933802	8.121500461608669	0.9849974995832639	1.3095948336087047
9.601600266711118	6.479133375924345	9.28171481326705	0.9828542852380159	1.4966798098385194
10.801800300050008	7.289025047914889	10.44192916492543	0.9807110708927679	1.6837647860683345
12.002000333388898	8.098916719905432	11.60214351658381	0.9785678565475199	1.8708497622981495
13.202200366727787	8.908808391895974	12.762357868242193	0.9764246422022718	2.0579347385279645
14.402400400066679	9.718700063886518	13.922572219900573	0.9742814278570238	2.2450197147577793
15.60260043340557	10.528591735877061	15.082786571558954	0.9721382135117758	2.4321046909875945
16.802800466744458	11.338483407867605	16.243000923217338	0.9699949991665278	2.6191896672174093
18.003000500083346	12.148375079858146	17.403215274875716	0.9678517848212798	2.806274643447224
19.203200533422237	12.95826675184869	18.5634296265341	0.9657085704760318	2.993359619677039
20.40340056676113	13.768158423839235	19.72364397819248	0.9635653561307838	3.1804445959068546
21.603600600100016	566.1912285538727	811.1000666752925	0.9625	764.8856742329992
22.803800633438907	1663.8293126859348	2383.526975334378	0.9625	2279.276195154609
24.004000666777795	2761.4673968179936	3955.9538839934594	0.9625	3793.6667160762154
25.204200700116687	3859.105480950055	5528.380792652545	0.9625	5308.057236997825
26.404400733455574	4956.743565082114	7100.807701311626	0.9625	6822.447757919433
27.604600766794466	6054.381649214177	8673.234609970712	0.9625	8336.838278841042
28.804800800133357	7152.019733346239	10245.661518629797	0.9625	9851.228799762652
30.005000833472245	8249.657817478297	11818.088427288878	0.9625	11365.619320684256
31.20520086681114	9347.29590161036	13390.515335947963	0.9625	12880.009841605866
32.40540090015003	10444.933985742422	14962.94224460705	0.9625	14394.40036252748
33.605600933488915	11542.57206987448	16535.369153266132	0.9625	15908.790883449085
34.8058009668278	12640.21015400654	18107.79606192521	0.9625	17423.18140437069
36.00600100016669	13737.848238138598	19680.22297058429	0.9625	18937.571925292297
37.206201033505586	14835.486322270663	21252.64987924338	0.9625	20451.96244621391
38.406401066844474	15933.124406402723	22825.076787902464	0.9625	21966.352967135517
39.60660110018336	17030.76249053478	24397.503696561544	0.9625	23480.743488057124
40.80680113352226	18128.400574666844	25969.930605220634	0.9625	24995.134008978737
42.007001166861144	19235.67472404071	27555.83138533262	0.9625034831303793	26522.307591401935
43.20720120020003	21985.209706767728	31430.056942383773	0.9631005911953987	30228.08008402491
44.40740123353892	24734.744689494746	35288.42497396475	0.963697699260418	33933.85257664788
45.607601266877815	27484.27967222178	39131.03264047671	0.9642948073254375	37639.62506927088
46.8078013002167	30233.814654948794	42957.976310191916	0.9648919153904568	41345.39756189385
48.00800133355559	32983.34963767581	46769.351567310005	0.9654890234554762	45051.17005451681
49.208201366894485	35732.88462040285	50565.25321991591	0.9660861315204956	48756.94254713981
50.40840140023337	38482.41960312986	54345.77530784118	0.9666832395855149	52462.715039762785
51.60860143357226	41231.95458585688	58111.01111043006	0.9672803476505343	56168.487532385756
52.80880146691115	43976.309294477534	61856.920982995136	0.9678734956741875	59870.49044294561
54.009001500250044	46019.443262699875	65051.85840304628	0.967930598098351	63062.229017870515
55.20920153358893	48062.57723092221	68278.6483561762	0.9679877005225146	66253.9675927954
56.40940156692782	50105.71119914454	71537.76956854278	0.9680448029466783	69445.70616772027
57.609601600266714	52148.84516736689	74829.71040792987	0.9681019053708418	72637.44474264517
58.8098016336056	54191.97913558922	78154.96912770571	0.9681590077950054	75829.18331757006
60.01000166694449	56235.11310381155	81514.05411822617	0.9682161102191691	79020.92189249492
61.210201700283385	58279.31697267807	84901.75139208855	0.9682736254022135	82207.18070196711
62.41040173362228	60448.32160492227	87624.23311947365	0.9683792876947108	84754.24098833703
63.61060176696115	62617.32623716647	90319.80712634393	0.9684849499872082	87301.30127470696
64.81080180030006	64786.330869410674	92988.87036580751	0.9685906122797056	89848.36156107689
66.01100183363894	66955.33550165487	95631.81202117224	0.968696274572203	92395.4218474468
67.21120186697783	69124.34013389907	98249.0136951238	0.9688019368647003	94942.48213381672
68.41140190031672	71293.34476614324	100840.8495934031	0.9689075991571976	97489.54242018666
69.6116019336556	73462.34939838745	103407.6867031689	0.969013261449695	100036.60270655657
70.8118019669945	75631.35403063164	105949.88496622417	0.9691189237421923	102583.66299292649
72.01200200033338	77790.8419524946	108460.58098166263	0.9692235692615436	105122.72750369758
73.21220203367228	79008.1755466135	110246.38805860686	0.9692275542394321	106870.21023018408
74.41240206701117	80225.50914073236	112035.06778491444	0.9692315392173205	108617.69295667058
75.61260210035006	81442.84273485125	113826.62709758074	0.969235524195209	110365.17568315707
76.81280213368895	82660.17632897015	115621.07295595475	0.9692395091730974	112112.65840964354
78.01300216702784	83877.50992308903	117418.41234182916	0.969243494150986	113860.14113613004
79.21320220036672	85094.84351720792	119218.65225953104	0.9692474791288744	115607.62386261651
80.41340223370561	86312.1771113268	121021.79973601279	0.9692514641067629	117355.106589103
81.61360226704451	87529.51070544572	122827.86182094362	0.9692554490846513	119102.58931558952
82.8138023003834	88746.8442995646	124636.84558680111	0.9692594340625398	120850.07204207599
84.01400233372229	89964.17789368349	126448.75812896396	0.9692634190404283	122597.55476856249
85.21420236706118	91181.51148780237	128263.60656580454	0.9692674040183168	124345.03749504896
86.41440240040006	92398.84508192124	130081.3980387821	0.9692713889962052	126092.52022153547
87.61460243373895	93430.57420495863	131568.45793018205	0.9692514023090694	127520.36701275628
88.81480246707784	94285.45805896717	132737.84497233204	0.9692085752478542	128643.66239616905
90.01500250041674	95140.3419129757	133906.6252314066	0.969165748186639	129766.95777958182
91.21520253375563	95995.22576698422	135074.7991795636	0.9691229211254239	130890.25316299456
92.41540256709452	96850.10962099275	136242.36728847117	0.9690800940642087	132013.5485464073
93.6156026004334	97704.99347500128	137409.33002930833	0.9690372670029935	133136.84392982008
94.8158026337723	98559.8773290098	138575.68787276564	0.9689944399417783	134260.13931323285
96.01600266711118	99414.76118301833	139741.44128904585	0.9689516128805631	135383.4346966456
97.21620270045007	100269.64503702686	140906.59074786442	0.9689087858193479	136506.73008005836
98.41640273378897	101124.5288910354	142071.13671845032	0.9688659587581328	137630.02546347113
99.61660276712786	101979.41274504391	143235.07966954645	0.9688231316969176	138753.3208468839
100.81680280046675	102834.29659905245	144398.42006941055	0.9687803046357024	139876.61623029667
102.01700283380563	103689.18045306097	145561.15838581556	0.9687374775744872	140999.9116137094
103.21720286714452	104544.06430706951	146723.29508605044	0.9686946505132721	142123.20699712218
104.41740290048341	105398.94816107802	147884.83063692052	0.9686518234520569	143246.50238053495
105.6176029338223	106067.50639791279	148797.41232225925	0.968558687211314	144118.0015374607
106.8178029671612	106560.29998372939	149475.48074963267	0.9684180933234864	144751.9763187935
108.01800300050009	107053.09356954599	150153.4289868369	0.9682774994356588	145385.95110012626
109.21820303383898	107545.8871553626	150831.25706582534	0.9681369055478312	146019.92588145903
110.41840306717786	108038.6807411792	151508.96501854004	0.96799631166000355	146653.9006627918
111.61860310051675	108531.4743269958	152186.55287691177	0.9678557177721759	147287.87544412457
112.81880313385564	109024.26791281239	152864.02067285997	0.9677151238843483	147921.85022545734
114.01900316719453	109517.06149862899	153541.3684382928	0.9675745299965206	148555.8250067901
115.21920320053343	110009.85508444559	154218.59620510702	0.967433936108693	149189.7997881229
116.41940323387232	110502.64867026219	154895.70400518822	0.9672933422208654	149823.77456945568
117.6196032672112	110995.4422560788	155572.69187041058	0.9671527483330378	150457.74935078845
118.81980330055009	111488.2358418954	156249.5598326371	0.9670121544452102	151091.72413212125
120.02000333388898	111981.02942771198	156926.30792371943	0.9668715605573825	151725.69891345402
121.22020336722785	112461.27241444432	157587.60269868324	0.9667305576980888	152344.72497559266
122.42040340056677	112208.48585664126	157353.09102855288	0.9665656684756431	152090.65703252208
123.62060343390564	111955.69929883821	157118.2219994397	0.9664007792531973	151836.58908945147
124.82080346724456	111702.91274103515	156882.9947938822	0.9662358900307515	151582.5211463809
126.02100350058343	111450.1261832321	156647.40859192394	0.9660710008083058	151328.4532033103
127.2212035339223	111197.33962542906	156411.4625711037	0.96590611158586	151074.38526023968
128.42140356726122	110944.553067626	156175.15590644596	0.9657412223634142	150820.3173171691
129.6216036006001	110691.76650982293	155938.48777045135	0.9655763331409685	150566.2493740985
130.821803633939	110438.97995201987	155701.45733308708	0.9654114439185227	150312.18143102792
132.0220036672779	110186.19339421683	155464.06376177684	0.9652465546960769	150058.1134879573
133.22220370061677	109933.40683641376	155226.3062213915	0.9650816654736312	149804.04554488673
134.42240373395566	109680.62027861072	154988.1838742393	0.9649167762511854	149549.97760181612
135.62260376729455	108700.93594483328	153645.3573237106	0.9652675419318352	148299.40436658007
136.82280380063344	107046.90066226038	151278.62044791772	0.9660966862575254	146124.362366323
138.02300383397233	105392.86537968747	148912.78468656927	0.9669258305832157	143949.32036606592
139.2232038673112	103738.83009711457	146547.849525126	0.967754974908906	141774.27836580886
140.4234039006501	102084.79481454166	144183.81444944034	0.9685841192345963	139599.2363655518
141.623603933989	100430.75953196877	141820.67894575602	0.9694132635602866	137424.19436529474
142.82380396732788	98776.72424939585	139458.44250070758	0.9702424078859768	135249.15236503768
144.02400400066676	97122.68896682294	137097.10460132026	0.9710715522116671	133074.11036478062
145.22420403400568	95468.65368424999	134736.6647350093	0.9719006965373574	130899.06836452348
146.42440406734457	93814.61840167709	132377.12238958	0.9727298408630477	128724.02636426642
147.62460410068346	92160.58311910418	130018.47705322677	0.973558985188738	126548.98436400937
148.82480413402234	90506.54783653127	127660.7282145334	0.9743881295144282	124373.9423637523
150.02500416736123	88859.9005207722	125316.10266613468	0.9751937489581597	122207.30264590416
151.22520420070012	87560.48764526377	123545.690378862	0.9748936989498249	120435.57020127506
152.425404234039	86261.07476975535	121773.49635114966	0.9745936489414903	118663.83775664597
153.6256042673779	84961.6618942469	119999.51789193193	0.9742935989331555	116892.10531201687
154.82580430071678	83662.24901873847	118223.752304721	0.9739935489248208	115120.37286738778
156.02600433405567	82362.83614323003	116446.19688759344	0.973693498916486	113348.64042275868
157.22620436739456	81063.42326772159	114666.84893317636	0.9733934489081514	111576.90797812959
158.42640440073345	79764.01039221317	112885.70572863375	0.9730933988998166	109805.17553350049
159.62660443407233	78464.59751670473	111102.76455565271	0.9727933488914818	108033.4430888714
160.82680446741122	77165.18464119629	109318.02269042953	0.9724932988831472	106261.7106442423
162.0270045007501	75865.77176568785	107531.47740365591	0.9721932488748124	104489.9781996132
163.22720453408903	74566.35889017938	105743.12596050501	0.9718931988664777	102718.24575498405
164.4274045674279	73266.94601467096	103952.96562061754	0.971593148858143	100946.51331035496
165.6276046007668	71967.53313916252	102160.99363808763	0.9712930988498083	99174.78086572586
166.8278046341057	70668.12026365408	100367.20726144899	0.9709930488414735	97403.04842109677
168.02800466744458	69368.70738814565	98571.60373366058	0.9706929988331389	95631.31597646768
169.22820470078346	68069.2945126372	96774.18029209276	0.9703929488248041	93859.58353183858
170.42840473412235	66769.8816371288	94974.93416851295	0.9700928988164694	92087.85108720949
171.62860476746124	65470.46876162035	93173.86258907136	0.9697928488081347	90316.11864258039
172.82880480080013	64171.05588611191	91370.96277428698	0.9694927987998	88544.38619795129
174.02900483413902	62871.643010603475	89566.23193903304	0.9691927487914652	86772.65375332219
175.2292048674779	61572.230135095044	87759.66729252275	0.9688926987831306	85000.9213086931
176.4294049008168	60272.81725958662	85951.26603829498	0.9685926487747958	83229.188864064
177.62960493415568	58973.40438407818	84141.02537419976	0.9682925987664611	81457.4564194349
178.82980496749457	57673.99150856974	82328.9424923838	0.9679925487581263	79685.72397480579
180.03000500083348	56399.52000099265	80548.07883152264	0.9676986934759397	77947.26358140857
181.23020503417237	56097.76184273837	80056.20426975272	0.967646432513527	77506.41318605482
182.43040506751126	55796.0036844841	79565.07708047636	0.9675941715511144	77065.5627907011
183.63060510085015	55494.245526229824	79074.6955616083	0.9675419105887018	76624.71239534738
184.83080513418903	55192.48736797556	78585.05801622792	0.967489649626289	76183.86199999363
186.03100516752792	54890.729209721285	78096.16275255957	0.9674373886638764	75743.0116046399
187.2312052008668	54588.971051467015	77608.00808395314	0.9673851277014638	75302.16120928616
188.4314052342057	54287.21289321274	77120.5923288646	0.9673328667390511	74861.31081393245
189.6316052675446	53985.45473495847	76633.9138108368	0.9672806057766384	74420.46041857872
190.83180530088347	53683.6965767042	76147.97085848017	0.9672283448142258	73979.61002322497
192.03200533422236	53381.93841844993	75662.7618054535	0.9671760838518132	73538.75962787124
193.23220536756125	53080.18026019565	75178.28499044513	0.9671238228894005	73097.90923251752
194.43240540090014	52778.42210194138	74694.53875715377	0.9670715619269878	72657.05883716379
195.63260543423903	52476.66394368711	74211.52145426974	0.9670193009645752	72216.20844181006
196.83280546757794	52174.905785432835	73729.23143545611	0.9669670400021625	71775.3580464563
198.03300550091683	51873.14762717856	73247.6670593301	0.9669147790397499	71334.50765110258
199.23320553425572	51571.38946892429	72766.82668944434	0.9668625180773373	70893.65725574885
200.4334055675946	51269.63131067002	72286.70869426837	0.9668102571149245	70452.80686039511
201.6336056009335	50967.87315241575	71807.31144717027	0.9667579961525119	70011.95646504138
202.83380563427238	50666.11499416148	71328.63332639817	0.9667057351900993	69571.10606968765
204.03400566761127	50364.3568359072	70850.672715062	0.9666534742276865	69130.25567433392
205.23420570095016	50062.59867765293	70373.42800111536	0.9666012132652739	68689.4052789802
206.43440573428904	49760.840519398655	69896.8975773373	0.9665489523028613	68248.55488362645
207.63460576762793	49459.08236114439	69421.0798413143	0.9664966913404486	67807.70448827272
208.83480580096682	49157.324202890115	68945.97319542235	0.966444430378036	67366.854092919
210.0350058343057	48855.566044635845	68471.57604680904	0.9663921694156233	66926.00369756526
211.2352058676446	48553.80788638157	67997.88680737576	0.9663399084532107	66485.15330221153
212.43540590098348	48252.049728127306	67524.90389375997	0.966287647490798	66044.30290685779
213.6356059343224	47950.29156987302	67052.62572731753	0.9662353865283854	65603.45251150406
214.8358059676613	47648.53341161875	66581.05073410529	0.9661831255659727	65162.60211615032
216.03600600100017	47346.775253364474	66110.17734486336	0.96613086460356	64721.75172079659
217.23620603433906	47045.017095110205	65640.0039949979	0.9660786036411474	64280.90132544286
218.43640606767795	46743.258936855935	65170.529124563756	0.9660263426787348	63840.050930089135
219.63660610101684	46441.500778601665	64701.751178247076	0.965974081716322	63399.2005347354
220.83680613435573	46139.74262034739	64233.66860534833	0.9659218207539094	62958.35013938166
222.0370061676946	45837.98446209312	63766.27985976506	0.9658695597914968	62517.49974402794
223.2372062010335	45536.22630383885	63299.58339997495	0.9658172988290841	62076.649348674204
224.4374062343724	45234.46814558458	62833.57768901881	0.9657650378666714	61635.798953320475
225.63760626771128	44932.70998733031	62368.261194483755	0.9657127769042588	61194.94855796674
226.83780630105016	44630.95182907603	61903.63238848637	0.9656605159418462	60754.098162613
228.03800633438905	44329.19367082176	61439.68974765602	0.9656082549794335	60313.24776725928
229.23820636772794	44027.43551256749	60976.43175311821	0.9655559940170209	59872.39737190555
230.43840640106686	43725.677354313215	60513.85689047791	0.9655037330546082	59431.5469765518
231.63860643440574	43423.91919605894	60051.963649803234	0.9654514720921955	58990.69658119807
232.83880646774463	43122.16103780467	59590.75052560881	0.9653992111297829	58549.84618584434
234.03900650108352	42820.40287955039	59130.21601683959	0.9653469501673703	58108.99579049061
235.2392065344224	42518.64472129613	58670.35862685445	0.9652946892049575	57668.145395136875
236.4394065677613	42216.88656304185	58211.17686341003	0.9652424282425449	57227.294999783146
237.63960660110018	41915.12840478758	57752.66923864462	0.9651901672801323	56786.44460442941
238.83980663443907	41613.370246533304	57294.834269062005	0.9651379063177196	56345.59420907569
240.04000666777796	41311.612088279035	56837.670475515566	0.9650856453553069	55904.74381372195
241.24020670111685	41009.853930024765	56381.176383192265	0.9650333843928943	55463.893418368214
242.4404067344557	40708.095771770495	55925.35052159681	0.9649811234304817	55023.043023014485
243.64060676779465	40406.33761351622	55470.19142453592	0.964928862468069	54582.19262766076
244.84080680113354	40104.579455261955	55015.69763010256	0.9648766015056564	54141.342232307026
246.0410068344724	39802.821297007686	54561.867680660216	0.9648243405432437	53700.49183695329
247.2412068678113	39501.06313875341	54108.70012282748	0.964772079580831	53259.64144159955
248.44140690115023	39199.30498049913	53656.1935074624	0.9647198186184184	52818.791046245824
249.64160693448912	38897.546822244854	53204.346389647064	0.9646675576560058	52377.94065089209
250.84180696782798	38595.788663990585	52753.15732867228	0.964615296693593	51937.09025553835
252.04200700116687	38294.030505736315	52302.62488802216	0.9645630357311804	51496.23986018463
253.24220703450575	37992.272347482045	51852.74763535895	0.9645107747687678	51055.38946483089
254.4424070678446	37690.51418922777	51403.524142507835	0.96445851380635506	50614.53906947716
255.6426071011835	37388.7560309735	50954.95298544182	0.9644062528439424	50173.68867412343
256.84280713452245	37086.99787271922	50507.0327442667	0.9643539918815298	49732.83827876968
258.04300716786133	36785.23971446495	50059.76200320602	0.9643017309191171	49291.98788341595
259.2432072012002	36483.481556210674	49613.139350586265	0.9642494699567045	48851.137488062224
260.4434072345391	36181.723397956404	49167.16337882188	0.9641972089942918	48410.287092708495
261.643607267878	35879.96523970213	48721.832684400586	0.9641449480318792	47969.436697354766
262.8438073012169	35578.20708144786	48277.145867868625	0.9640926870694665	47528.58630200103
264.0440073345558	35276.44892319359	47833.10153381608	0.9640404261070539	47087.73590664729
265.24420736789466	34974.69076493932	47389.69829086227	0.9639881651446413	46646.88551129356
266.44440740123355	34672.93260668505	46946.93475164125	0.9639359041822285	46206.03511593983
267.64460743457244	34371.17444843078	46504.809532787396	0.9638836432198159	45765.184720586105
268.8448074679113	34069.41629017651	46063.32125492084	0.9638313822574033	45324.33432523237
270.0450075012502	33767.65813192223	45622.46854263329	0.9637791212949905	44883.48392987865
271.2452075345891	33465.89997366796	45182.25002447361	0.9637268603325779	44442.63353452491
272.445407567928	33164.141815413685	44742.664332933724	0.9636745993701653	44001.78313917117
273.6456076012669	32862.383657159415	44303.71010443438	0.9636223384077526	43560.932743817444
274.84580763460576	32560.625498905138	43865.38597931104	0.96357007744534	43120.08234846371
276.04600766794465	32258.867340650868	43427.69060179989	0.9635178164829273	42679.23195310998
277.24620770128354	31957.1091823966	42990.622620023845	0.9634655555205147	42238.38155775625
278.4464077346224	31655.351024142332	42554.18068597861	0.963413294558102	41797.53116240251
279.6466077679613	31353.592865888062	42118.363455518826	0.9633610335956894	41356.68076704878
280.8468078013002	31051.83470763379	41683.16958834432	0.9633087726332767	40915.83037169506
282.0470078346391	30750.076549379515	41248.59774798628	0.963256511670864	40474.979976341325
283.247207867978	30448.318391125245	40814.64660179368	0.9632042507084514	40034.129580987596
284.44740790131686	30146.560232870972	40381.314820919535	0.9631519897460388	39593.27918563386
285.64760793465575	29844.8020746167	39948.60108030744	0.963099728783626	39152.42879028013
286.84780796799464	29543.04391636243	39516.50405867804	0.9630474678212134	38711.5783949264
288.0480080013335	29241.285758108155	39085.0224385155	0.9629952068588008	38270.727999572664
289.2482080346724	28939.527599853885	38654.15490605426	0.9629429458963881	37829.877604218935
290.44840806801136	28637.769441599597	38223.90015126554	0.9628906849339754	37389.027208865176
291.64860810135025	28336.011283345324	37794.25686784423	0.9628384239715628	36948.17681351145
292.84880813468914	28034.253125091054	37365.223753195554	0.9627861630091502	36507.32641815772
294.049008168028	27732.49496683678	36936.79950842189	0.9627339020467375	36066.47602280398
295.2492082013669	27430.73680858251	36508.982838309785	0.9626816410843249	35625.62562745025
296.4494082347058	27128.978650328238	36081.77245131674	0.9626293801219122	35184.77523209652
297.6496082680447	26827.220492073968	35655.167059558386	0.9625771191594995	34743.92483674279
298.8498083013836	26525.462333819698	35229.16537879539	0.9625248581970869	34303.07444138906
300.05000833472246	26223.704175565425	34803.76612842067	0.9624725972346743	33862.22404603533
301.25020836806135	25921.946017311155	34378.96803144652	0.9624203362722615	33421.3736506816
302.45040840140024	25620.18785905688	33954.76981449182	0.9623680753098489	32980.52325532787
303.6506084347391	25318.429700802608	33531.170207769355	0.9623158143474363	32539.672859974133
304.850808468078	25016.67154254834	33108.16794507312	0.9622635533850236	32098.822464620403
306.0510085014169	24714.91338429407	32685.761763765684	0.9622112924226109	31657.97206926667
307.2512085347558	24413.155226039795	32263.950404765645	0.9621590314601983	31217.121673912934
308.4514085680947	24111.397067785525	31842.732612535172	0.9621067704977856	30776.27127855921
309.65160860143357	23809.63890953125	31422.10713506744	0.962054509535373	30335.420883205472
310.85180863477245	23507.880751276978	31002.07272387431	0.96200224857296035	29894.570487851746
312.05200866811134	23206.122593022705	30582.628133973958	0.9619499876105477	29453.72009249801
313.25220870145023	22915.062130881095	30178.742408572078	0.9618948937597384	29028.89572044612
314.4524087347891	22859.228021193536	30104.31428651483	0.9617775089261383	28956.459653870363
315.652608768128	22803.39391150598	30029.890592456126	0.9616601240925383	28884.023587294607
316.8528088014669	22747.55980181843	29955.47132600083	0.9615427392589383	28811.58752071885
318.0530088348058	22691.725692130873	29881.056486753827	0.9614253544253384	28739.1514541431
319.25320886814467	22635.891582443317	29806.646074320077	0.9613079695917384	28666.71538756734
320.45340890148356	22580.057472755765	29732.240088304578	0.9611905847581383	28594.279320991587
321.65360893482244	22524.22336306821	29657.83852831237	0.9610731999245383	28521.84325441583
322.85380896816133	22468.389253380654	29583.441393948546	0.9609558150909383	28449.407187840075
324.0540090015002	22412.555143693102	29509.048684818245	0.9608384302573383	28376.97112126432
325.25420903483916	22356.721034005543	29434.660400526634	0.9607210454237383	28304.53505468856
326.45440906817805	22300.88692431799	29360.27654067897	0.9606036605901382	28232.098988112808
327.65460910151694	22245.052814630435	29285.897104880507	0.9604862757565382	28159.662921537052
328.8548091348558	22189.21870494288	29211.52209273659	0.9603688909229382	28087.226854961296
330.0550091681947	22133.384595255324	29137.151503852587	0.9602515060893382	28014.79078838554
331.2552092015336	22077.55048556777	29062.785337833906	0.9601341212557382	27942.354721809785
332.4554092348725	22021.716375880216	28988.42359428602	0.9600167364221383	27869.918655234032
333.6556092682114	21965.88226619266	28914.066272814445	0.9598993515885382	27797.482588658277
334.85580930155027	21910.048156505105	28839.71337302473	0.9597819667549382	27725.046522082517
336.05600933488915	21854.214046817553	28765.364894522496	0.9596645819213382	27652.610455506765
337.25620936822804	21798.379937129997	28691.020836913383	0.9595471970877382	27580.17438893101
338.45640940156693	21742.54582744244	28616.6811998031	0.9594298122541381	27507.738322355257
339.6566094349058	21686.71171775489	28542.345982797397	0.9593124274205381	27435.302255779498
340.8568094682447	21630.877608067334	28468.015185502056	0.9591950425869381	27362.86618920374
342.0570095015836	21575.04349837978	28393.68880752293	0.9590776577533381	27290.43012262799
343.2572095349225	21519.209388692227	28319.3668484659	0.9589602729197381	27217.994056052234
344.45740956826137	21463.37527900467	28245.0493079369	0.958842888086138	27145.557989476478
345.65760960160026	21407.541169317115	28170.736185541926	0.958725503252538	27073.121922900722
346.85780963493914	21351.70705962956	28096.42748088699	0.9586081184189381	27000.685856324966
348.05800966827803	21295.872949942004	28022.12319357817	0.9584907335853381	26928.249789749214
349.2582097016169	21240.038840254452	27947.82332322159	0.9583733487517381	26855.813723173454
350.4584097349558	21184.204730566897	27873.527869423415	0.958255963918138	26783.3776565977
351.6586097682947	21128.37062087934	27799.236831789873	0.958138579084538	26710.941590021946
352.8588098016336	21072.53651119179	27724.95020992722	0.958021194250938	26638.50552344619
354.05900983497247	21016.702401504233	27650.668003441762	0.957903809417338	26566.06945687044
355.25920986831136	20960.868291816678	27576.39021193986	0.957786424583738	26493.63339029468
356.45940990165025	20905.034182129126	27502.116835027915	0.957669039750138	26421.197323718923
357.65960993498913	20849.20007244157	27427.84787231237	0.9575516549165379	26348.76125714317
358.8598099683281	20793.365962754015	27353.583323399736	0.9574342700829379	26276.32519056741
360.06001000166697	20737.53185306646	27279.323187896545	0.9573168852493379	26203.889123991656
361.26021003500585	20681.697743378903	27205.067465409396	0.957199500415738	26131.4530574159
362.46041006834474	20625.863633691348	27130.816155544915	0.957082115582138	26059.016990840144
363.66061010168363	20570.029524003792	27056.569257909792	0.9569647307485379	25986.580924264388
364.8608101350225	20514.19541431624	26982.32677211076	0.9568473459149379	25914.144857688632
366.0610101683614	20458.361304628685	26908.088697754592	0.9567299610813379	25841.70879111288
367.2612102017003	20402.52719494113	26833.85503444811	0.9566125762477379	25769.272724537124
368.4614102350392	20346.693085253577	26759.625781798197	0.9564951914141379	25696.83665796137
369.66161026837807	20290.85897556602	26685.40093941175	0.9563778065805378	25624.400591385613
370.86181030171696	20235.024865878466	26611.180506895747	0.9562604217469378	25551.964524809857
372.06201033505585	20179.190756190914	26536.9644838572	0.9561430369133378	25479.528458234105
373.26221036839473	20123.35664650336	26462.752869903154	0.9560256520797378	25407.09239165835
374.4624104017336	20067.522536815803	26388.545664640722	0.9559082672461379	25334.65632508259
375.6626104350725	20011.688427128247	26314.34286767706	0.9557908824125378	25262.220258506837
376.8628104684114	19955.85431744069	26240.144478619353	0.9556734975789378	25189.78419193108
378.0630105017503	19900.020207753136	26165.950497074853	0.9555561127453378	25117.34812535533
379.2632105350892	19844.186098065584	26091.76092265085	0.9554387279117378	25044.91205877957
380.46341056842806	19788.351988378028	26017.575754954676	0.9553213430781378	24972.475992203814
381.66361060176695	19732.517878690476	25943.394993593727	0.9552039582445377	24900.03992562806
382.86381063510584	19676.68376900292	25869.218638175418	0.9550865734109377	24827.603859052306
384.0640106684447	19620.849659315365	25795.046688307237	0.9549691885773377	24755.16779247655
385.2642107017836	19565.015549627813	25720.87914359671	0.9548518037437377	24682.731725900794
386.4644107351225	19509.181439940257	25646.716003651396	0.9547344189101377	24610.29565932504
387.6646107684614	19453.3473302527	25572.55726807892	0.9546170340765376	24537.859592749286
388.8648108018003	19397.51322056515	25498.40293648695	0.9544996492429377	24465.42352617353
390.06501083513916	19341.679110877594	25424.25300848319	0.9543822644093377	24392.987459597774
