time	whole_blood_radioactivity	plasma_radioactivity	metabolite_parent_fraction	AIF
0	0	0	1	0
0.9016502750458409	0.06259675864590741	0.08262467534161742	0.9981821567035366	0.06108232093673222
1.8033005500916819	0.12519351729181483	0.16524935068323485	0.9963643134070732	0.12216464187346444
2.704950825137523	0.18779027593772227	0.24787402602485228	0.9945464701106098	0.1832469628101967
3.6066011001833638	0.25038703458362965	0.3304987013664697	0.9927286268141464	0.2443292837469289
4.508251375229205	0.31298379322953707	0.4131233767080872	0.990910783517683	0.3054116046836612
5.409901650275046	0.37558055187544453	0.49574805204970457	0.9890929402212196	0.3664939256203934
6.311551925320886	0.43817731052135195	0.5783727273913221	0.9872750969247562	0.4275762465571256
7.2132022003667275	0.5007740691672593	0.6609974027329394	0.985457253628293	0.4886585674938578
8.114852475412569	0.5633708278131667	0.7436220780745569	0.9836394103318296	0.5497408884305901
9.01650275045841	0.6259675864590741	0.8262467534161744	0.9818215670353662	0.6108232093673224
9.91815302550425	0.6885643451049815	0.9088714287577917	0.9800037237389028	0.6719055303040544
10.819803300550092	0.7511611037508891	0.9914961040994091	0.9781858804424394	0.7329878512407868
11.721453575595932	0.8137578623967964	1.0741207794410266	0.976368037145976	0.794070172177519
12.623103850641773	0.833095851617967	1.0996459841915984	0.9758064516129032	0.812940306820758
13.524754125687615	0.833095851617967	1.0996459841915984	0.9758064516129032	0.812940306820758
14.426404400733455	0.833095851617967	1.0996459841915984	0.9758064516129032	0.812940306820758
15.328054675779295	0.833095851617967	1.0996459841915984	0.9758064516129032	0.812940306820758
16.229704950825138	0.833095851617967	1.0996459841915984	0.9758064516129032	0.812940306820758
17.131355225870976	0.833095851617967	1.0996459841915984	0.9758064516129032	0.812940306820758
18.03300550091682	0.833095851617967	1.0996459841915984	0.9758064516129032	0.812940306820758
18.93465577596266	0.833095851617967	1.0996459841915984	0.9758064516129032	0.812940306820758
19.8363060510085	0.833095851617967	1.0996459841915984	0.9758064516129032	0.812940306820758
20.73795632605434	0.833095851617967	1.0996459841915984	0.9758064516129032	0.812940306820758
21.639606601100184	0.833095851617967	1.0996459841915984	0.9758064516129032	0.812940306820758
22.541256876146022	0.833095851617967	1.0996459841915984	0.9758064516129032	0.812940306820758
23.442907151191864	0.833095851617967	1.0996459841915984	0.9758064516129032	0.812940306820758
24.344557426237706	0.833095851617967	1.0996459841915984	0.9758064516129032	0.812940306820758
25.246207701283545	0.833095851617967	1.0996459841915984	0.9758064516129032	0.812940306820758
26.147857976329387	0.833095851617967	1.0996459841915984	0.9758064516129032	0.812940306820758
27.04950825137523	0.833095851617967	1.0996459841915984	0.9758064516129032	0.812940306820758
27.951158526421068	0.833095851617967	1.0996459841915984	0.9758064516129032	0.812940306820758
28.85280880146691	1.1854855205701857	1.564783199292763	0.9757782502350212	1.2623992220363887
29.754459076512752	7.202138675123892	9.506472582128248	0.9752967437547059	8.936399450576246
30.65610935155859	13.218791829677578	17.448161964963706	0.9748152372743905	16.610399679116075
31.557759626604433	19.235444984231282	25.389851347799194	0.974333730794075	24.28439990765593
32.459409901650275	25.25209813878499	33.331540730634686	0.9738522243137597	31.958400136195788
33.361060176696114	31.268751293338678	41.273230113470134	0.9733707178334443	39.632400364735616
34.26271045174195	37.28540444789236	49.2149194963056	0.9728892113531289	47.30640059327545
35.1643607267878	43.30205760244609	57.15660887914111	0.9724077048728136	54.98040082181533
36.06601100183364	49.31871075699977	65.09829826197657	0.9719261983924982	62.65440105035515
36.967661276879475	55.33536391155346	73.03998764481203	0.9714446919121827	70.32840127889499
37.86931155192532	61.35201706610719	80.98167702764754	0.9709631854318674	78.00240150743487
38.77096182697116	67.36867022066086	88.92336641048298	0.970481678951552	85.6764017359747
39.672612102017	73.38532337521454	96.86505579331845	0.9700001724712366	93.35040196451452
40.574262377062844	79.40197652976828	104.80674517615395	0.9695186659909213	101.02440219305441
41.47591265210868	85.41862968432196	112.74843455898942	0.9690371595106059	108.69840242159424
42.37756292715452	91.43528283887564	120.69012394182488	0.9685556530302905	116.37240265013406
43.27921320220037	97.45193599342939	128.63181332466038	0.9680741465499751	124.04640287867397
44.180863477246206	103.46858914798305	136.57350270749586	0.9675926400696597	131.72040310721377
45.082513752292044	109.48524230253675	144.5151920903313	0.9671111335893443	139.3944033357536
45.98416402733789	115.50189545709047	152.45688147316682	0.966629627109029	147.06840356429348
46.88581430238373	121.51854861164415	160.3985708560023	0.9661481206287136	154.7424037928333
47.78746457742957	127.53520176619784	168.34026023883774	0.9656666141483983	162.41640402137313
48.68911485247541	133.5518549207516	176.28194962167325	0.9651851076680829	170.09040424991304
49.59076512752125	319.8574561539771	422.79196386066076	0.9652670358755322	420.9898156657447
50.49241540256709	741.8722835929545	983.8198241417729	0.9660855968920683	989.8813950735672
51.394065677612936	1163.887111031935	1548.5245448823002	0.9669041579086045	1558.7729744813942
52.295715952658774	1585.9019384709122	2116.9423909920606	0.9677227189251406	2127.6645538892167
53.19736622770461	2007.9167659098896	2689.110105862177	0.9685412799416767	2696.5561332970387
54.09901650275046	2429.93159334887	3265.0649192825663	0.9693598409582129	3265.4477127048663
55.0006667777963	2851.9464207878477	3844.844555517164	0.970178401974749	3834.3392921126883
55.902317052842136	3273.961248226825	4428.487241540608	0.9709969629912852	4403.230871520512
56.80396732788798	3695.9760756658056	5016.031715440072	0.9718155240078213	4972.122450928338
57.70561760293382	4117.990903104783	5607.5172349861605	0.9726340850243574	5541.01403033616
58.60726787797966	4540.0057305437595	6202.983586376921	0.9734526460408937	6109.9056097439825
59.508918153025505	4962.020557982741	6802.471093158925	0.9742712070574298	6678.79718915181
60.41056842807134	5384.035385421718	7406.020625329721	0.975089768073966	7247.688768559633
61.31221870311718	5893.182836140146	8129.5003942815765	0.9758058278930041	7929.8065497462685
62.21386897816303	7015.287323885995	9667.898385327819	0.9758008164537078	9408.44341349997
63.115519253208866	8137.391811631835	11203.273403276227	0.9757958050144113	10887.080277253659
64.01716952825471	9259.496299377684	12735.634349656255	0.9757907935751149	12365.71714100736
64.91881980330055	10381.600787123525	14264.990091082655	0.9757857821358186	13844.354004761051
65.82047007834639	11503.705274869364	15791.349459426585	0.9757807706965221	15322.99086851474
66.72212035339223	12625.809762615203	17314.721251985568	0.9757757592572257	16801.62773226843
67.62377062843807	13747.914250361044	18835.114231652533	0.9757707478179293	18280.26459602212
68.5254209034839	14870.018738106884	20352.53712708381	0.975765736378633	19758.90145977581
69.42707117852976	15992.12322585274	21866.99863286622	0.9757607249393365	21237.53832352952
70.3287214535756	17114.227713598582	23378.50740968303	0.9757557135000401	22716.17518728321
71.23037172862144	18236.332201344416	24887.07208447918	0.9757507020607437	24194.8120510369
72.13202200366727	19358.43668909026	26392.701250625352	0.9757456906214473	25673.448914790595
73.03367227871311	20480.541176836097	27895.4034680811	0.9757406791821509	27152.08577854428
73.93532255375895	21602.64566458194	29395.187263557153	0.9757356677428545	28630.722642297973
74.8369728288048	22724.7501523278	30892.061130676633	0.975730656303558	30109.359506051685
75.73862310385064	23846.854640073638	32386.03353013536	0.9757256448642617	31587.996369805373
76.64027337889648	24844.66916389568	33705.4165540676	0.9756769722360162	32874.40470399231
77.54192365394232	25712.23616305156	34842.1803098433	0.9755825456176249	33959.370465055334
78.44357392898816	26579.803162207434	35976.325838584205	0.9754881189992336	35044.33622611836
79.345224204034	27447.370161363313	37107.862175449205	0.9753936923808424	36129.301987181396
80.24687447907985	28314.937160519203	38236.79831407277	0.9752992657624511	37214.26774824444
81.14852475412569	29182.50415967508	39363.143206803165	0.9752048391440598	38299.233509307465
82.05017502917153	30050.071158830957	40486.90576493919	0.9751104125256684	39384.19927037049
82.95182530421737	30917.638157986836	41608.09485896512	0.9750159859072771	40469.16503143352
83.8534755792632	31785.20515714271	42726.71931878412	0.9749215592888859	41554.130792496544
84.75512585430904	32652.77215629859	43842.78793395005	0.9748271326704946	42639.09655355957
85.6567761293549	33520.33915545448	44956.30945389769	0.9747327060521033	43724.06231462261
86.55842640440073	34387.906154610355	46067.292588171316	0.974638279433712	44809.028075685645
87.46007667944657	35255.47315376623	47175.746006651876	0.9745438528153207	45893.99383674867
88.36172695449241	36123.040152922105	48281.678339782455	0.9744494261969294	46978.95959781169
89.26337722953825	36990.60715207799	49385.09817879228	0.9743549995785381	48063.92535887472
90.16502750458409	37858.17415123387	50486.014075919185	0.9742605729601468	49148.891119937754
91.06667777962994	38725.74115038975	51584.434544630545	0.9741661463417555	50233.85688100079
91.96832805467578	39516.47008100533	52588.00706169392	0.974074157478832	51224.091218287904
92.86997832972162	39972.453486643215	53188.10915162723	0.9739927887128125	51801.62751687921
93.77162860476746	40428.4368922811	53788.059760183256	0.9739114199467931	52379.163815470536
94.6732788798133	40884.42029791898	54387.85894471156	0.9738300511807736	52956.700114061845
95.57492915485913	41340.40370355687	54987.50676253271	0.9737486824147541	53534.23641265317
96.47657942990499	41796.38710919475	55587.00327093833	0.9736673136487346	54111.77271124449
97.37822970495083	42252.37051483264	56186.348527191185	0.9735859448827152	54689.3090098358
98.27987997999666	42708.35392047052	56785.54258852511	0.9735045761166957	55266.845308427124
99.1815302550425	43164.337326108405	57384.58551214507	0.9734232073506762	55844.38160701843
100.08318053008834	43620.32073174629	57983.47735522722	0.9733418385846568	56421.91790560976
100.98483080513418	44076.30413738417	58582.21817491882	0.9732604698186373	56999.454204201065
101.88648108018003	44532.28754302207	59180.808028338346	0.9731791010526178	57576.99050279239
102.78813135522587	44988.27094865995	59779.24697257544	0.9730977322865983	58154.52680138371
103.68978163027171	45444.254354297824	60377.53506469102	0.973016363520579	58732.06309997502
104.59143190531755	45900.23775993571	60975.672361717196	0.9729349947545595	59309.599398566344
105.49308218036339	46356.221165573595	61573.65892065733	0.97285362598854	59887.13569715765
106.39473245540923	46812.20457121147	62171.49479848607	0.9727722572225206	60464.67199574897
107.29638273045508	47268.18797684937	62769.1800521494	0.9726908884565011	61042.2082943403
108.19803300550092	47724.17138248725	63366.71473856449	0.9726095196904816	61619.74459293161
109.09968328054676	48180.15478812514	63964.098914619986	0.9725281509244621	62197.28089152293
110.0013335555926	48636.138193763014	64561.33263717575	0.9724467821584427	62774.81719011424
110.90298383063843	49092.121599400896	65158.415963063104	0.9723654133924232	63352.35348870556
111.80463410568427	49548.105005038786	65755.3489490847	0.9722840446264037	63929.889787296874
112.70628438073012	50004.088410676675	66352.13165201458	0.9722026758603843	64507.4260858882
113.60793465577596	51060.56536488441	67739.84663953906	0.9720434712837159	65838.15773904107
114.5095849308218	52186.69600255463	69218.70150334972	0.9718752382155178	67256.25557778741
115.41123520586764	53312.82664022485	70696.90997462386	0.9717070051473197	68674.35341653376
116.31288548091348	54438.95727789506	72174.47247706635	0.9715387720791215	70092.45125528012
117.21453575595932	55565.08791556528	73651.38943401181	0.9713705390109233	71510.54909402646
118.11618603100516	56691.2185532355	75127.66126842512	0.9712023059427252	72928.64693277281
119.01783630605101	57817.349190905734	76603.28840290166	0.971034072874527	74346.74477151918
119.91948658109685	58943.47982857595	78078.27125966779	0.9708658398063288	75764.84261026554
120.82113685614269	60069.610466246166	79552.61026058125	0.9706976067381307	77182.94044901188
121.72278713118854	61195.74110391639	81026.30582713163	0.9705293736699325	78601.03828775823
122.62443740623436	62321.871741586605	82499.3583804406	0.9703611406017344	80019.13612650457
123.5260876812802	63448.00237925682	83971.76834126252	0.9701929075335362	81437.23396525093
124.42773795632606	64574.13301692705	85443.53612998473	0.970024674465338	82855.33180399731
125.32938823137188	65700.26365459728	86914.66216662784	0.9698564413971399	84273.42964274365
126.23103850641773	66826.39429226749	88385.14687084632	0.9696882083289418	85691.52748149
127.13268878146356	67952.5249299377	89854.9906619289	0.9695199752607435	87109.62532023634
128.03433905650942	69039.72741753615	91271.23060621349	0.9694859868156643	88486.6510497527
128.93598933155525	70016.07688879698	92535.96562803544	0.9698342775534486	89746.71855785098
129.8376396066011	70992.42636005784	93799.99009252137	0.970182568291233	91006.78606594929
130.73928988164693	71968.77583131865	95063.3045983143	0.9705308590290173	92266.85357404755
131.64094015669278	72945.1253025795	96325.90974338511	0.9708791497668016	93526.92108214584
132.54259043173863	73921.47477384035	97587.8061250333	0.9712274405045859	94786.98859024416
133.44424070678446	74897.82424510118	98848.99433988785	0.9715757312423702	96047.05609834242
134.3458909818303	75874.17371636204	100109.47498390853	0.9719240219801545	97307.12360644073
135.24754125687613	76850.52318762285	101369.24865238629	0.9722723127179388	98567.19111453899
136.14919153192199	77826.8726588837	102628.31593994479	0.9726206034557231	99827.2586226373
137.0508418069678	78803.22213014454	103886.67744054079	0.9729688941935074	101087.32613073556
137.95249208201366	79779.57160140538	105144.33374746553	0.9733171849312917	102347.39363883386
138.85414235705952	80755.92107266624	106401.28545334532	0.9736654756690761	103607.46114693217
139.75579263210534	81732.27054392706	107657.53315014268	0.9740137664068604	104867.52865503044
140.6574429071512	82708.6200151879	108913.07742915729	0.9743620571446447	106127.59616312875
141.55909318219702	83684.96948644874	110167.91888102666	0.974710347882429	107387.663671227
142.46074345724287	84661.31895770958	111422.0580957274	0.9750586386202134	108647.7311793253
143.36239373228872	85637.66842897044	112675.49566257591	0.9754069293579977	109907.79868742362
144.26404400733455	86614.01790023127	113928.23217022925	0.975755220095782	111167.86619552188
145.1656942823804	87590.3673714921	115180.26820668644	0.9761035108335663	112427.93370362019
146.06734455742622	87290.1627428202	114857.41192683713	0.9762042894140815	112120.34140134622
146.96899483247208	86939.46710212373	114471.7781790545	0.9762952782494466	111750.74410426627
147.8706451075179	86588.77146142728	114085.63293654668	0.9763862670848117	111381.14680718633
148.77229538256375	86238.07582073081	113698.97518098804	0.9764772559201768	111011.54951010639
149.6739456576096	85887.38018003435	113311.80389134807	0.9765682447555417	110641.95221302644
150.57559593265543	85536.68453933792	112924.11804388232	0.9766592335909068	110272.35491594649
151.47724620770128	85185.98889864144	112535.91661212326	0.9767502224262719	109902.75761886654
152.3788964827471	84835.293257945	112147.19856687152	0.9768412112616369	109533.1603217866
153.28054675779296	84484.59761724852	111757.96287618647	0.9769322000970019	109163.56302470666
154.18219703283881	84133.90197655206	111368.2085053773	0.977023188932367	108793.96572762671
155.08384730788464	83783.2063358556	110977.9344169938	0.977114177767732	108424.36843054678
155.9854975829305	83432.51069515916	110587.13957081709	0.9772051666030971	108054.77113346683
156.88714785797632	83081.81505446271	110195.82292385047	0.977296155438462	107685.17383638688
157.78879813302217	82731.11941376624	109803.98343031002	0.9773871442738271	107315.57653930693
158.690448408068	82380.4237730698	109411.62004161553	0.9774781331091922	106945.979242227
159.59209868311385	81320.74368144367	107796.6264731445	0.9779234029439676	105492.68705311455
160.4937489581597	79890.40364461018	105554.81413178478	0.9785538923215091	103472.83478108981
161.39539923320552	78460.06360777676	103327.59427569751	0.9791843816990508	101452.98250906514
162.29704950825138	77029.7235709433	101114.82488820012	0.9798148710765923	99433.1302370404
163.1986997832972	75599.38353410987	98916.36578949365	0.9804453604541338	97413.27796501572
164.10035005834305	74169.0434972764	96732.07860705972	0.9810758498316753	95393.42569299098
165.0020003333889	72738.70346044294	94561.8267466287	0.9817063392092169	93373.57342096623
165.90365060843473	71308.36342360951	92405.47536370542	0.9823368285867584	91353.72114894156
166.80530088348058	69878.02338677604	90262.89133564	0.9829673179642999	89333.86887691682
167.7069511585264	68447.68334994263	88133.94323423282	0.9835978073418415	87314.01660489215
168.60860143357226	67017.34331310914	86018.50129885966	0.9842282967193831	85294.1643328674
169.51025170861809	65587.00327627572	83916.43741010802	0.9848587860969246	83274.31206084273
170.41190198366394	64156.663239442256	81827.62506391064	0.9854892754744662	81254.45978881799
171.3135522587098	62726.32320260878	79751.93934616812	0.9861197648520077	79234.60751679324
172.21520253375562	61295.98316577535	77689.25690784729	0.9867502542295492	77214.75524476857
173.11685280880147	59865.64312894188	75639.45594054656	0.9873807436070908	75194.90297274382
174.0185030838473	58435.303092108465	73602.41615251801	0.9880112329846323	73175.05070071913
174.92015335889315	57004.963055275	71578.01874513512	0.9886417223621738	71155.1984286944
175.82180363393897	55574.62301844157	69566.14638979814	0.9892722117397154	69135.34615666972
176.72345390898482	54144.2829816081	67566.68320526597	0.989902701117257	67115.493884645
177.62510418403068	52713.94294477463	65579.51473540699	0.9905331904947985	65095.64161262025
178.5267544590765	51283.602907941204	63604.52792735846	0.99116367987234	63075.78934059557
179.42840473412235	50647.12850089844	62750.68575383734	0.9913694255018839	62212.9264479765
180.33005500916818	50355.846024555736	62381.00598192144	0.991390482301326	61853.150454058166
181.23170528421403	50064.56354821303	62011.43032873905	0.9914115391007682	61493.37446013983
182.13335555925988	49773.28107187032	61641.95875030948	0.9914325959002103	61133.59846622148
183.0350058343057	49481.99859552762	61272.591202676784	0.9914536526996524	60773.82247230315
183.93665610935156	49190.716119184915	60903.32764190978	0.9914747094990944	60414.04647838481
184.83830638439738	48899.43364284221	60534.16802410202	0.9914957662985365	60054.27048446647
185.73995665944324	48608.1511664995	60165.112305371746	0.9915168230979786	59694.49449054813
186.64160693448906	48316.8686901568	59796.160441861946	0.9915378798974207	59334.7184966298
187.54325720953491	48025.58621381409	59427.31238974021	0.9915589366968628	58974.942502711456
188.44490748458077	47734.30373747138	59058.56810519887	0.9915799934963049	58615.16650879311
189.3465577596266	47443.02126112868	58689.927544454884	0.991601050295747	58255.39051487477
190.24820803467244	47151.73878478597	58321.390663749786	0.991622107095189	57895.614520956435
191.14985830971827	46860.45630844327	57952.9574193498	0.9916431638946311	57535.838527038104
192.05150858476412	46569.17383210056	57584.62776754567	0.9916642206940733	57176.06253311976
192.95315885980997	46277.89135575784	57216.40166465277	0.9916852774935154	56816.286539201414
193.8548091348558	45986.608879415144	56848.279067011004	0.9917063342929575	56456.51054528308
194.75645940990165	45695.32640307244	56480.25993098483	0.9917273910923996	56096.73455136474
195.65810968494748	45404.04392672973	56112.344212963224	0.9917484478918417	55736.95855744641
196.55975995999333	45112.76145038703	55744.531869359664	0.9917695046912838	55377.18256352806
197.46141023503915	44821.47897404432	55376.82285661214	0.9917905614907259	55017.40656960973
198.363060510085	44530.19649770162	55009.21713118307	0.991811618290168	54657.630575691386
199.26471078513086	44238.914021358905	54641.714649559384	0.99183267508961	54297.85458177304
200.16636106017668	43947.63154501621	54274.31536825242	0.9918537318890521	53938.07858785471
201.06801133522254	43656.349068673495	53907.01924379792	0.9918747886884942	53578.302593936365
201.96966161026836	43365.06659233079	53539.82623275609	0.9918958454879363	53218.52660001803
202.8713118853142	43073.784115988085	53172.73629171143	0.9919169022873785	52858.75060609969
203.77296216036007	42782.50163964537	52805.74937727291	0.9919379590868206	52498.974612181344
204.6746124354059	42491.219163302674	52438.865446073774	0.9919590158862627	52139.198618263006
205.57626271045174	42199.93668695997	52072.084454771655	0.9919800726857048	51779.42262434467
206.47791298549757	41908.654210617264	51705.40636004847	0.9920011294851468	51419.64663042634
207.37956326054342	41617.37173427456	51338.83111861045	0.9920221862845889	51059.87063650799
208.28121353558925	41326.08925793185	50972.35868718811	0.992043243084031	50700.09464258966
209.1828638106351	41034.80678158914	50605.989022536225	0.9920642998834731	50340.31864867132
210.08451408568095	40743.52430524643	50239.72208143385	0.9920853566829152	49980.54265475297
210.98616436072678	40452.24182890373	49873.55782068425	0.9921064134823573	49620.76666083464
211.88781463577263	40160.959352561025	49507.49619711488	0.9921274702817994	49260.9906669163
212.78946491081845	39869.67687621832	49141.53716757745	0.9921485270812416	48901.214672997965
213.6911151858643	39578.394399875615	48775.68068894782	0.9921695838806837	48541.43867907962
214.59276546091016	39287.1119235329	48409.926718126	0.9921906406801257	48181.662685161275
215.49441573595598	38995.829447190205	48044.2752120362	0.9922116974795678	47821.886691242944
216.39606601100184	38704.546970847485	47678.72612762669	0.9922327542790099	47462.110697324606
217.29771628604766	38413.26449450479	47313.27942186994	0.992253811078452	47102.33470340627
218.1993665610935	38121.98201816208	46947.93505176245	0.9922748678778941	46742.55870948792
219.10101683613934	37830.69954181938	46582.69297432483	0.9922959246773362	46382.78271556959
220.0026671111852	37539.41706547667	46217.55314660174	0.9923169814767783	46023.00672165125
220.90431738623104	37248.13458913396	45852.51552566191	0.9923380382762204	45663.23072773291
221.80596766127687	36956.85211279126	45487.58006859809	0.9923590950756624	45303.45473381458
222.70761793632272	36665.569636448556	45122.746732527004	0.9923801518751045	44943.678739896226
223.60926821136854	36374.28716010585	44758.015474589454	0.9924012086745467	44583.902745977895
224.5109184864144	36083.00468376314	44393.38625195015	0.9924222654739888	44224.12675205956
225.41256876146025	35791.722207420426	44028.8590217978	0.9924433222734309	43864.35075814121
226.31421903650607	35500.43973107773	43664.43374134506	0.992464379072873	43504.57476422288
227.21586931155193	35209.157254735015	43300.11036782849	0.9924854358723151	43144.79877030454
228.11751958659775	34917.87477839232	42935.88885850861	0.9925064926717572	42785.0227763862
229.0191698616436	34626.592302049605	42571.769170669766	0.9925275494711993	42425.24678246785
229.92082013668943	34335.30982570691	42207.75126162027	0.9925486062706413	42065.47078854952
230.82247041173528	34044.0273493642	41843.83508869222	0.9925696630700834	41705.694794631185
231.72412068678113	33752.74487302148	41480.020609241576	0.9925907198695255	41345.91880071284
232.62577096182696	33461.462396678784	41116.30778064819	0.9926117766689676	40986.1428067945
233.5274212368728	33170.17992033607	40752.69656031566	0.9926328334684097	40626.36681287616
234.42907151191864	32878.89744399337	40389.1869056714	0.9926538902678519	40266.59081895783
235.3307217869645	32587.614967650665	40025.7787741666	0.992674947067294	39906.81482503949
236.2323720620103	32296.332491307963	39662.47212327624	0.9926960038667361	39547.03883112116
237.13402233705617	32005.05001496525	39299.266910498976	0.9927170606661782	39187.26283720281
238.03567261210202	31713.767538622546	38936.1630933573	0.9927381174656202	38827.48684328446
238.93732288714784	31422.485062279848	38573.16062939735	0.9927591742650623	38467.710849366136
239.8389731621937	31131.202585937135	38210.25947618894	0.9927802310645044	38107.93485544779
240.74062343723955	30839.920109594434	37847.45959132563	0.9928012878639465	37748.15886152946
241.64227371228537	30548.63763325172	37484.76093242458	0.9928223446633886	37388.382867611115
242.54392398733125	30257.355156909016	37122.16345712665	0.9928434014628307	37028.60687369277
243.44557426237708	29966.072680566314	36759.667123096304	0.9928644582622728	36668.83087977443
244.3472245374229	29674.790204223606	36397.27188802162	0.992885515061715	36309.0548858561
245.24887481246873	29383.5077278809	36034.977709614286	0.992906571861157	35949.278891937756
246.15052508751458	29092.22525153819	35672.78454560956	0.9929276286605991	35589.50289801942
247.0521753625604	28800.94277519549	35310.69235376628	0.9929486854600412	35229.72690410109
247.95382563760623	28509.66029885278	34948.701091866795	0.9929697422594833	34869.950910182735
248.8554759126521	28218.377822510072	34586.81071771704	0.9929907990589254	34510.1749162644
249.75712618769793	27927.09534616737	34225.021189146435	0.9930118558583675	34150.398922346074
250.65877646274376	27635.81286982466	33863.33246400788	0.9930329126578096	33790.62292842772
251.56042673778958	27344.53039348196	33501.74450017783	0.9930539694572517	33430.84693450939
252.46207701283546	27053.247917139248	33140.25725555611	0.9930750262566937	33071.070940591046
253.3637272878813	26761.96544079654	32778.870688066076	0.9930960830561358	32711.2949466727
254.2653775629271	26470.68296445384	32417.584755654487	0.9931171398555779	32351.518952754377
255.167027837973	26179.40048811113	32056.39941629149	0.9931381966550201	31991.742958836025
256.06867811301885	25888.118011768416	31695.31462797068	0.9931592534544622	31631.96696491768
256.9703283880647	25596.83553542572	31334.330348709045	0.9931803102539043	31272.19097099935
257.8719786631105	25305.553059083017	30973.44653654689	0.9932013670533464	30912.414977081018
258.7736289381564	25014.270582740297	30612.663149547876	0.9932224238527885	30552.638983162662
259.6752792132022	24722.988106397603	30251.98014579908	0.9932434806522306	30192.86298924433
260.576929488248	24431.705630054897	29891.39748341081	0.9932645374516726	29833.086995325993
261.47857976329385	24140.423153712196	29530.91512051672	0.9932855942511147	29473.311001407666
262.38023003833973	23849.140677369476	29170.533015273722	0.9933066510505568	29113.53500748931
263.28188031338556	23557.85820102678	28810.25112586206	0.9933277078499989	28753.759013570976
264.1835305884314	23266.575724684073	28450.069410485172	0.993348764649441	28393.983019652645
265.08518086347726	22975.29324834136	28089.98782736974	0.9933698214488831	28034.20702573429
265.9868311385231	22684.010771998655	27730.006334765723	0.9933908782483253	27674.431031815955
266.8884814135689	22392.728295655957	27370.124890946245	0.9934119350477674	27314.655037897624
267.79013168861474	22101.445819313256	27010.343454207607	0.9934329918472095	26954.879043979297
268.6917819636606	21810.163342970536	26650.661982869296	0.9934540486466515	26595.103050060934
269.59343223870644	21518.880866627835	26291.080435274	0.9934751054460936	26235.327056142607
270.49508251375227	21227.598390285133	25931.598769787503	0.9934961622455357	25875.55106222427
271.39673278879815	20936.315913942413	25572.216944798696	0.9935172190449778	25515.775068305913
272.29838306384397	20645.033437599715	25212.934918719675	0.9935382758444199	25155.999074387586
273.2000333388898	20353.750961257014	24853.752649985527	0.993559332643862	24796.223080469255
274.1016836139356	20062.468484914312	24494.670097054466	0.9935803894433041	24436.44708655092
275.0033338889815	19771.186008571596	24135.687218407744	0.9936014462427462	24076.671092632565
275.9049841640273	19479.90353222889	23776.803972549704	0.9936225030421884	23716.89509871423
276.80663443907315	19188.62105588619	23418.02031800769	0.9936435598416304	23357.1191047959
277.70828471411903	18897.338579543473	23059.336213332026	0.9936646166410725	22997.343110877544
278.60993498916486	18606.05610320077	22700.75161709612	0.9936856734405146	22637.56711695921
279.5115852642107	18314.77362685807	22342.26648789629	0.9937067302399567	22277.79112304088
280.41323553925656	18023.491150515354	21983.880784351826	0.9937277870393988	21918.01512912253
281.3148858143024	17732.208674172653	21625.59446510502	0.9937488438388409	21558.23913520419
282.2165360893482	17440.92619782995	21267.407488821053	0.993769900638283	21198.46314128586
283.11818636439403	17149.643721487253	20909.31981418803	0.993790957437725	20838.68714736753
284.0198366394399	16858.36124514453	20551.331399916944	0.9938120142371671	20478.911153449175
284.92148691448574	16567.078768801835	20193.44220474175	0.9938330710366092	20119.13515953084
285.82313718953156	16275.796292459127	19835.65218741918	0.9938541278360513	19759.35916561251
286.72478746457745	15984.513816116412	19477.961306728866	0.9938751846354935	19399.583171694154
287.62643773962327	15693.23133977371	19120.369521473298	0.9938962414349356	19039.80717777582
288.5280880146691	15401.94886343101	18762.87679047776	0.9939172982343777	18680.031183857485
289.4297382897149	15110.666387088308	18405.483072590338	0.9939383550338198	18320.255189939155
290.3313885647608	14819.383910745593	18048.18832668192	0.9939594118332619	17960.479196020806
291.2330388398066	14528.101434402884	17690.992511646193	0.993980468632704	17600.703202102464
