frame_start	frame_end	Left-Cerebral-White-Matter	Left-Cerebellum-White-Matter	Left-Cerebellum-Cortex	Left-Thalamus	Left-Caudate	Left-Putamen	Left-Pallidum	Brain-Stem	Left-Hippocampus	Left-Amygdala	CSF	Left-Accumbens-area	Left-VentralDC	Left-choroid-plexus	Right-Cerebral-White-Matter	Right-Cerebellum-White-Matter	Right-Cerebellum-Cortex	Right-Thalamus	Right-Caudate	Right-Putamen	Right-Pallidum	Right-Hippocampus	Right-Amygdala	Right-Accumbens-area	Right-VentralDC	Right-choroid-plexus	AirCavity	Skull	Vermis	Pons	CSF-ExtraCerebral	Head-ExtraCerebral	ctx-lh-bankssts	ctx-lh-caudalanteriorcingulate	ctx-lh-caudalmiddlefrontal	ctx-lh-cuneus	ctx-lh-entorhinal	ctx-lh-fusiform	ctx-lh-inferiorparietal	ctx-lh-inferiortemporal	ctx-lh-isthmuscingulate	ctx-lh-lateraloccipital	ctx-lh-lateralorbitofrontal	ctx-lh-lingual	ctx-lh-medialorbitofrontal	ctx-lh-middletemporal	ctx-lh-parahippocampal	ctx-lh-paracentral	ctx-lh-parsopercularis	ctx-lh-parsorbitalis	ctx-lh-parstriangularis	ctx-lh-pericalcarine	ctx-lh-postcentral	ctx-lh-posteriorcingulate	ctx-lh-precentral	ctx-lh-precuneus	ctx-lh-rostralanteriorcingulate	ctx-lh-rostralmiddlefrontal	ctx-lh-superiorfrontal	ctx-lh-superiorparietal	ctx-lh-superiortemporal	ctx-lh-supramarginal	ctx-lh-frontalpole	ctx-lh-temporalpole	ctx-lh-transversetemporal	ctx-lh-insula	ctx-rh-bankssts	ctx-rh-caudalanteriorcingulate	ctx-rh-caudalmiddlefrontal	ctx-rh-cuneus	ctx-rh-entorhinal	ctx-rh-fusiform	ctx-rh-inferiorparietal	ctx-rh-inferiortemporal	ctx-rh-isthmuscingulate	ctx-rh-lateraloccipital	ctx-rh-lateralorbitofrontal	ctx-rh-lingual	ctx-rh-medialorbitofrontal	ctx-rh-middletemporal	ctx-rh-parahippocampal	ctx-rh-paracentral	ctx-rh-parsopercularis	ctx-rh-parsorbitalis	ctx-rh-parstriangularis	ctx-rh-pericalcarine	ctx-rh-postcentral	ctx-rh-posteriorcingulate	ctx-rh-precentral	ctx-rh-precuneus	ctx-rh-rostralanteriorcingulate	ctx-rh-rostralmiddlefrontal	ctx-rh-superiorfrontal	ctx-rh-superiorparietal	ctx-rh-superiortemporal	ctx-rh-supramarginal	ctx-rh-frontalpole	ctx-rh-temporalpole	ctx-rh-transversetemporal	ctx-rh-insula
0	30	323.24542236328125	424.3024597167969	339.35650634765625	334.1811828613281	283.019287109375	449.3428649902344	329.8060607910156	384.0697937011719	470.13482666015625	329.80059814453125	306.7670593261719	570.7014770507812	695.1395874023438	252.94305419921875	319.8398742675781	376.4857177734375	349.4510803222656	319.2476806640625	302.12005615234375	458.2578125	443.42529296875	452.898193359375	418.2245788574219	729.9191284179688	585.9744262695312	351.2051086425781	62.967254638671875	172.8023223876953	467.2712707519531	348.334228515625	440.3529357910156	128.50228881835938	279.06976318359375	140.9468231201172	401.792724609375	349.2044982910156	310.56329345703125	447.8540954589844	329.42425537109375	241.92686462402344	349.0516052246094	342.2317199707031	429.1688537597656	409.0210876464844	610.8762817382812	306.6774597167969	247.77207946777344	253.43048095703125	550.0059204101562	267.82452392578125	519.0840454101562	356.6903381347656	503.4613342285156	246.42276000976562	405.51226806640625	362.607666015625	506.7665100097656	343.3936462402344	436.7445068359375	330.61834716796875	416.7609558105469	425.9936828613281	479.97845458984375	56.94737243652344	397.2185363769531	561.6343994140625	418.7070617675781	378.9781494140625	383.4009704589844	402.22998046875	370.5228576660156	397.1389465332031	345.31158447265625	346.12548828125	264.5640869140625	422.9488525390625	492.5011291503906	398.0660400390625	568.6675415039062	301.2177429199219	288.20147705078125	407.02789306640625	544.4803466796875	388.754638671875	531.3223266601562	398.3568420410156	450.34765625	320.4966125488281	420.6661071777344	409.76898193359375	596.4057006835938	369.4456787109375	423.8467102050781	336.775390625	471.3673400878906	441.4017333984375	381.6974792480469	175.10433959960938	357.87255859375	635.4081420898438
30	60	4529.2373046875	5195.2529296875	4934.21240234375	5522.92236328125	5196.4130859375	6073.10498046875	4630.0068359375	4212.1201171875	4795.52880859375	4422.3310546875	5198.1025390625	6889.00146484375	5562.90966796875	5266.83203125	4489.54443359375	5014.62841796875	4949.52099609375	5552.673828125	5575.4404296875	5717.62060546875	5590.45654296875	5164.89013671875	4452.779296875	6088.32568359375	5499.01611328125	6176.66357421875	965.5591430664062	2206.31640625	6823.28515625	4244.31787109375	5488.625	1510.5704345703125	4953.068359375	3113.4091796875	5742.41552734375	6273.10791015625	3769.140625	5131.25927734375	5049.44677734375	4247.642578125	5421.708984375	4456.67041015625	4896.0703125	6131.28955078125	5826.19384765625	4833.93896484375	4786.88623046875	5815.5185546875	6416.9873046875	3159.680419921875	5849.45556640625	6175.88037109375	6056.2978515625	4360.9765625	5570.41845703125	6260.96533203125	6002.29248046875	5474.8974609375	5526.80126953125	4867.3583984375	5177.6875	6048.94287109375	4621.5234375	2751.205078125	5342.53125	6283.25537109375	5205.96728515625	5207.021484375	5542.2294921875	6750.78515625	3711.320068359375	4937.29638671875	5327.88525390625	4573.4853515625	5708.88427734375	5537.08837890625	5117.87158203125	6248.39599609375	5592.7763671875	4543.529296875	4262.97021484375	6291.57568359375	6936.9306640625	4371.134765625	6107.06005859375	7040.75732421875	5934.53857421875	5184.17529296875	5705.38720703125	6305.93359375	6548.77490234375	5574.568359375	6152.8505859375	4949.357421875	5563.37939453125	5992.64892578125	5071.68505859375	3307.995361328125	5889.06982421875	5955.0087890625
60	90	9669.5888671875	10935.123046875	10248.9462890625	11676.47265625	10918.5234375	12640.0703125	9916.689453125	8027.7080078125	10446.91015625	9173.173828125	10346.7099609375	10939.3740234375	9252.15625	10927.02734375	9570.85546875	10720.3662109375	10652.97265625	12083.7724609375	11584.1083984375	12377.583984375	9419.412109375	10161.125	9121.8564453125	12464.5244140625	9286.8837890625	10544.1484375	1931.575927734375	4561.97265625	13454.3837890625	8441.1669921875	11380.1826171875	3292.48291015625	10939.51171875	6559.07958984375	12619.2646484375	13593.3173828125	6981.9072265625	10433.48828125	11049.4501953125	8671.0517578125	11184.7705078125	9904.3212890625	9689.326171875	12307.052734375	10885.0107421875	9927.0439453125	9037.064453125	11924.96484375	12350.1875	7335.2919921875	11815.6416015625	13109.33984375	12665.0478515625	9782.5048828125	11903.0869140625	13516.5244140625	12684.58203125	11935.6103515625	12240.7861328125	11297.625	10679.1064453125	12476.7822265625	11080.1923828125	5627.78173828125	10406.1181640625	12244.919921875	11708.701171875	10230.333984375	12195.6171875	14957.5830078125	6059.916015625	10648.9931640625	11901.9970703125	9619.2880859375	11405.2841796875	11451.7880859375	9707.7021484375	13045.2373046875	12295.2490234375	9994.40234375	8368.7548828125	13392.4921875	13764.3984375	10362.876953125	12584.8984375	14664.4013671875	12653.8486328125	11444.3564453125	12090.6298828125	13787.6142578125	14168.5615234375	12218.9931640625	12922.4228515625	11276.3779296875	11342.6171875	12981.49609375	10320.361328125	6258.4921875	11773.48828125	11329.6884765625
90	120	14734.509765625	16341.4140625	15594.7470703125	18285.12890625	17461.8984375	19353.71484375	13782.859375	12269.2548828125	15601.474609375	14222.23828125	15887.3271484375	16347.935546875	13971.529296875	16189.001953125	14682.40625	16157.31640625	16376.462890625	18776.484375	19040.796875	18538.771484375	13762.556640625	14836.376953125	13694.3583984375	18052.087890625	14011.837890625	15677.052734375	2848.100830078125	6857.86376953125	20286.984375	12801.0078125	17092.7109375	4865.17431640625	17089.580078125	9643.3681640625	18933.087890625	21378.251953125	10862.755859375	15944.173828125	17470.1484375	12986.2021484375	17647.248046875	15170.3349609375	14715.6806640625	19606.939453125	17615.498046875	15958.361328125	13446.9892578125	19054.435546875	19122.796875	11892.9326171875	18560.587890625	20549.404296875	19302.048828125	14569.861328125	18006.259765625	21115.66015625	20809.30078125	18672.1484375	18428.34765625	17339.5234375	16405.041015625	19433.861328125	16044.2158203125	9467.7060546875	17515.314453125	18177.25	19154.130859375	16415.376953125	19056.431640625	21730.14453125	9555.61328125	15750.2080078125	18742.447265625	14304.0634765625	18161.640625	17141.7109375	15575.595703125	19840.8203125	17861.85546875	15228.7412109375	13438.6494140625	20308.91796875	21468.8515625	14919.7529296875	19918.16015625	23446.00390625	19450.779296875	17119.9140625	18403.974609375	20744.9453125	19722.21484375	18861.185546875	19727.361328125	17262.646484375	17517.736328125	20134.9375	16751.50390625	9743.0322265625	18926.099609375	17303.72265625
120	150	18525.740234375	21440.021484375	20384.6171875	22710.517578125	22183.875	24458.810546875	17062.46875	15455.955078125	19702.365234375	18469.845703125	19416.517578125	20629.30078125	16437.751953125	22045.23046875	18300.685546875	20572.642578125	21127.76171875	23637.353515625	23987.234375	23797.6484375	18796.23046875	18377.943359375	17034.48828125	21929.451171875	16424.6953125	19706.443359375	3391.5693359375	8367.4609375	25126.5625	16259.3447265625	21013.0078125	5874.00732421875	20793.814453125	13424.5419921875	23105.21875	25980.333984375	12974.4873046875	20177.376953125	22129.5	16521.8828125	20404.7578125	19090.05859375	18710.35546875	24368.119140625	21726.51171875	20066.58203125	18325.19140625	23248.548828125	23534.193359375	15616.19140625	23188.212890625	26417.681640625	23576.861328125	18587.306640625	22290.521484375	26090.41015625	25082.072265625	23189.40625	22838.8515625	21816.376953125	21201.421875	23799.244140625	20249.84375	12980.3955078125	21972.73046875	22122.197265625	23986.572265625	19250.412109375	23291.064453125	28050.3671875	11335.3271484375	19973.6484375	23162.09765625	17800.287109375	21258.5234375	21354.7265625	18606.95703125	24947.779296875	21415.62890625	19731.501953125	17070.57421875	25181.734375	25753.44921875	18753.19921875	24743.55078125	29435.380859375	24059.841796875	20314.509765625	22988.787109375	26660.505859375	23644.0546875	23829.98046875	24107.1015625	21645.720703125	22213.48046875	24495.08984375	22148.537109375	13019.2890625	24139.962890625	21003.798828125
150	180	19611.65234375	21817.095703125	21443.2421875	24124.083984375	24944.287109375	24703.740234375	18719.85546875	16625.994140625	19765.16796875	17538.865234375	20663.26171875	22079.03125	15726.140625	22370.681640625	19312.822265625	21499.787109375	22032.63671875	25273.876953125	24382.50390625	24574.181640625	19762.51953125	18964.333984375	20051.279296875	23992.326171875	15793.12890625	22124.037109375	3592.27001953125	8780.1005859375	27764.845703125	17723.173828125	21862.052734375	6357.05224609375	22130.076171875	12893.4306640625	24039.091796875	28336.998046875	13839.84375	21108.900390625	23692.787109375	17442.1015625	22000.4140625	20499.02734375	18725.625	25649.265625	20999.51171875	20946.849609375	17994.498046875	25157.8359375	23984.62109375	16266.494140625	23746.720703125	27704.265625	24846.943359375	19566.462890625	23700.6953125	27666.15625	24256.970703125	24451.12109375	24212.150390625	23871.787109375	21892.521484375	25303.3046875	20068.173828125	14191.853515625	23478.322265625	22838.423828125	23628.53515625	19783.001953125	24798.494140625	29651.3359375	12798.2900390625	21235.8984375	24587.478515625	18461.359375	23140.525390625	22276.32421875	19036.458984375	25460.779296875	21998.625	20543.0546875	18077.4921875	26652.390625	26617.375	20114.10546875	25721.662109375	29902.873046875	25269.8359375	21778.115234375	24391.189453125	27465.98828125	24826.435546875	25102.6953125	25774.69921875	22958.947265625	23085.98828125	26012.08203125	22268.90625	14128.2333984375	25125.650390625	21822.166015625
180	240	19810.02734375	22292.0	22127.72265625	24979.478515625	24849.294921875	26208.857421875	19377.0859375	16591.22265625	20254.263671875	19374.353515625	19817.765625	21635.95703125	15630.763671875	20370.423828125	19596.40625	22095.71484375	22613.23828125	26085.31640625	24988.427734375	25542.908203125	20639.6328125	19926.611328125	19483.166015625	23353.14453125	15490.099609375	20808.921875	3553.234130859375	8720.6279296875	27511.734375	17095.353515625	21766.533203125	6425.47314453125	22918.2421875	14714.40625	25599.65625	28140.1015625	13328.1044921875	21401.712890625	24245.134765625	17742.671875	21957.673828125	20691.337890625	19194.583984375	25665.166015625	21775.193359375	21816.33203125	18606.361328125	25795.2578125	24624.23828125	17068.142578125	24444.59765625	26741.251953125	25057.71484375	20241.607421875	24277.521484375	28172.009765625	26343.5703125	24811.564453125	24700.923828125	24084.130859375	22243.810546875	25493.40234375	20017.345703125	14157.919921875	23384.27734375	22755.34765625	25319.185546875	19814.791015625	24509.404296875	29660.560546875	12381.384765625	21237.36328125	25298.6875	18573.728515625	22647.125	22363.9140625	19473.88671875	26017.90234375	22451.947265625	21262.404296875	18652.056640625	26979.87109375	26975.982421875	19355.775390625	25417.87109375	29979.9296875	25700.935546875	22047.54296875	24500.5625	28167.140625	24994.103515625	25481.24609375	25431.513671875	23973.521484375	23624.47265625	26065.02734375	21873.64453125	13390.6142578125	24010.201171875	22257.69140625
240	300	18838.9296875	21516.62890625	21000.689453125	24095.619140625	23808.994140625	25185.548828125	20221.310546875	15917.2119140625	19451.65234375	19044.01953125	18652.146484375	20021.728515625	15720.5517578125	19733.4375	18687.087890625	20789.78125	21288.189453125	25880.978515625	24178.580078125	24499.7578125	19238.693359375	19505.69921875	19272.396484375	21749.974609375	15229.4638671875	19298.388671875	3454.53515625	8474.302734375	26214.650390625	17080.509765625	20177.869140625	6572.255859375	21451.6328125	15104.0	23740.0546875	25007.595703125	13140.5732421875	20266.20703125	22896.56640625	17453.263671875	20791.533203125	19551.84765625	18274.10546875	24365.369140625	20601.744140625	21355.40625	17667.64453125	23856.060546875	22927.203125	16599.552734375	23217.318359375	24673.935546875	23781.30078125	20250.751953125	23013.974609375	26070.30078125	23812.306640625	23577.599609375	23300.0859375	22804.9453125	21498.296875	23674.40625	19595.7734375	13786.9677734375	22442.505859375	21705.869140625	23459.142578125	19083.125	23172.369140625	26758.46484375	12131.9091796875	20294.251953125	23901.412109375	17813.224609375	20723.2734375	20797.82421875	18592.65625	24616.103515625	21015.91796875	20671.861328125	17148.81640625	24258.56640625	24736.6796875	18743.349609375	23726.416015625	27148.91796875	23931.818359375	20986.810546875	22920.203125	25974.796875	23624.12109375	23968.544921875	23863.91796875	22415.943359375	22450.828125	24230.197265625	20160.03515625	14023.7197265625	22537.861328125	20852.091796875
300	360	17683.10546875	20095.037109375	20253.021484375	23614.748046875	22490.044921875	23740.111328125	18894.05859375	15021.0615234375	18158.021484375	18063.1875	16477.201171875	18484.7734375	14687.5537109375	17326.1484375	17443.384765625	19845.052734375	20290.365234375	24121.005859375	22724.01953125	23224.7578125	19509.77734375	18001.12109375	18117.30859375	20434.728515625	14396.9443359375	18224.576171875	3349.5029296875	8090.85302734375	24165.73046875	16292.9306640625	18457.568359375	6583.1396484375	20120.15234375	14995.3037109375	22114.23046875	23534.23046875	13210.234375	18562.51953125	21488.21484375	16505.525390625	19117.146484375	18224.927734375	17353.177734375	22372.056640625	19306.609375	19946.59765625	17232.41796875	22404.04296875	21320.587890625	16467.373046875	21596.435546875	22796.958984375	21830.580078125	19417.9296875	21419.4921875	24244.708984375	22576.158203125	21893.505859375	21776.94921875	21618.359375	20047.546875	22480.7890625	18750.880859375	13555.48046875	21130.85546875	20137.75390625	21270.115234375	17419.392578125	21588.7109375	24118.34375	11638.763671875	18617.220703125	22010.634765625	16822.470703125	19867.2890625	19515.861328125	17257.38671875	22402.81640625	19180.689453125	19239.064453125	17323.423828125	22201.82421875	22516.39453125	17448.8984375	21894.796875	23784.103515625	22246.537109375	19667.46875	21077.267578125	23877.2578125	22092.736328125	22261.955078125	21700.4765625	20993.42578125	20277.416015625	22583.861328125	19581.970703125	13908.3740234375	21612.611328125	19638.0625
360	480	16067.8291015625	18440.76171875	18357.806640625	22137.80859375	20573.1953125	22132.625	18587.7421875	14518.033203125	17165.671875	16336.7587890625	15226.888671875	16987.44140625	13970.51171875	15994.607421875	15929.87890625	18212.759765625	18678.154296875	22658.384765625	20187.146484375	21415.998046875	18403.310546875	16899.96875	17203.076171875	18327.05078125	14147.9716796875	16750.353515625	3154.003662109375	7807.76171875	21784.16796875	15583.294921875	16238.33984375	6691.50634765625	18830.1953125	13904.00390625	19463.37109375	20654.240234375	11749.8359375	16878.80859375	19127.03125	15320.552734375	17210.275390625	16310.517578125	15858.8046875	19745.62109375	17535.6484375	18070.2578125	15358.2177734375	20278.58984375	19708.86328125	14740.2578125	18872.791015625	19880.4765625	19407.998046875	16796.095703125	18742.931640625	21077.78125	20291.349609375	19638.650390625	19384.33984375	19158.56640625	18195.435546875	19524.59765625	17005.66796875	12782.7890625	19312.296875	19083.158203125	18900.84765625	16637.7890625	19073.609375	21057.173828125	11380.69921875	16991.986328125	19731.875	15241.9599609375	17427.193359375	17375.44921875	15694.99609375	19882.4765625	17354.501953125	17348.306640625	14970.2578125	19506.962890625	20088.212890625	15698.8251953125	19013.65234375	21501.02734375	19491.58203125	17872.05859375	18897.4921875	20791.56640625	19597.587890625	19801.53125	19326.044921875	18733.2734375	18700.310546875	19834.484375	17496.681640625	12813.90625	19331.908203125	17931.640625
480	600	14429.5029296875	16781.90234375	16510.89453125	19676.451171875	17578.88671875	19496.4921875	16780.099609375	13674.001953125	15228.2314453125	15995.49609375	13108.44921875	15750.806640625	13130.458984375	13602.3359375	14366.0537109375	16686.08984375	16714.62890625	20573.07421875	17683.28125	19537.234375	18135.26171875	15469.677734375	16382.935546875	16506.525390625	13869.1337890625	15245.318359375	3022.30859375	7434.80517578125	19865.59765625	15013.291015625	13807.1181640625	6670.46435546875	16766.3828125	13308.1240234375	16861.009765625	17667.705078125	11515.44140625	15300.70703125	16567.240234375	13905.4150390625	15386.748046875	14652.2998046875	14320.736328125	17137.044921875	15515.6708984375	16019.501953125	14624.0302734375	17219.892578125	16421.7890625	13834.5029296875	16277.21484375	16982.115234375	16631.466796875	15215.0966796875	16421.2734375	18227.75390625	17470.404296875	17135.734375	16877.873046875	16708.662109375	16456.126953125	16849.515625	15097.6328125	12941.6064453125	17584.6328125	16867.90234375	17841.83984375	14995.142578125	16288.79296875	17868.173828125	11278.3505859375	15249.2734375	17048.625	13775.38671875	15087.345703125	15171.5732421875	13923.1220703125	17058.986328125	15391.0830078125	15474.2841796875	14142.22265625	16848.60546875	17230.00390625	14450.189453125	16297.0009765625	17739.7109375	16806.48046875	15530.36328125	16420.548828125	17555.0390625	16907.3125	17298.599609375	16662.3125	16383.1181640625	16553.2734375	16995.482421875	15590.3095703125	12557.9541015625	17050.693359375	15975.8662109375
600	900	12697.8134765625	14938.3955078125	14187.26953125	17369.017578125	15034.83984375	17064.71875	16002.0595703125	12445.2744140625	13359.345703125	14002.9208984375	10721.2607421875	14426.3154296875	12351.32421875	11479.5966796875	12569.693359375	14854.357421875	14084.0458984375	17827.744140625	14837.5908203125	16359.66796875	16119.6220703125	13307.708984375	14392.6474609375	14136.279296875	12588.4306640625	12039.8681640625	2965.15869140625	7253.4208984375	15556.1123046875	14197.228515625	11286.0478515625	6793.2998046875	14075.734375	12395.7236328125	14457.5732421875	14409.7412109375	10440.212890625	13033.4638671875	13961.83203125	12350.1630859375	12871.1533203125	12316.7724609375	11964.423828125	14230.595703125	13052.3095703125	13589.31640625	12334.7646484375	14112.0322265625	13902.1357421875	12537.2158203125	13680.0986328125	13965.03125	13776.291015625	13465.7431640625	14050.3955078125	14752.115234375	14707.4892578125	14493.31640625	13998.3447265625	13988.9248046875	14013.5751953125	14014.4248046875	12082.28515625	11902.904296875	14818.15234375	14393.6982421875	14198.443359375	12820.4990234375	13969.4365234375	14321.7158203125	10105.2412109375	13003.9052734375	14124.2099609375	11766.318359375	12727.9072265625	13046.8623046875	11944.03515625	13914.3505859375	13103.8046875	13193.587890625	12100.90625	13914.1728515625	13988.8486328125	12052.82421875	13196.6279296875	14518.5859375	13659.19140625	13773.361328125	13686.017578125	14342.00390625	14123.4443359375	14315.609375	13890.6513671875	13566.7421875	13632.1484375	13751.830078125	12459.744140625	11309.6923828125	14112.2392578125	13826.2958984375
900	1200	11430.822265625	13619.5908203125	11983.154296875	15126.9970703125	11917.2607421875	14262.0546875	14856.43359375	11235.4228515625	11658.0517578125	12025.32421875	8889.37109375	12325.9140625	11792.595703125	10598.5771484375	11299.0126953125	13458.83203125	11835.123046875	15020.439453125	12316.53515625	13835.017578125	14378.67578125	11321.98046875	12018.732421875	12434.853515625	11923.2060546875	10599.744140625	3053.76806640625	7393.32421875	12682.8671875	13195.1298828125	9271.2822265625	7071.42578125	12284.916015625	11627.671875	12218.4580078125	12018.21875	9653.2265625	11400.533203125	11617.982421875	11002.9404296875	11227.828125	10609.8681640625	10400.7529296875	11880.5322265625	11288.404296875	11824.62109375	10886.265625	11738.6484375	11722.935546875	11051.2841796875	11743.1640625	11475.9990234375	11492.9365234375	11966.6767578125	12089.146484375	12293.4228515625	12077.0869140625	12503.0361328125	11707.265625	11569.8544921875	12033.1103515625	11722.8525390625	10417.7734375	11120.974609375	12787.099609375	12261.6005859375	12110.203125	11424.123046875	11749.7080078125	11887.2919921875	9497.6787109375	11257.171875	11621.1708984375	10101.244140625	11024.9296875	11042.458984375	10206.4609375	11639.537109375	11266.25390625	11050.8740234375	10456.7998046875	11420.01953125	11376.271484375	10434.677734375	11049.5888671875	12034.59765625	11103.9501953125	12118.7392578125	11506.1767578125	11876.529296875	11885.4345703125	12094.1494140625	11667.40234375	11251.7470703125	11531.640625	11297.041015625	10988.548828125	10490.37890625	12354.212890625	11737.41796875
1200	1500	10494.0107421875	12129.5791015625	10160.748046875	12659.4853515625	10397.705078125	12155.6328125	12872.5009765625	10118.537109375	10105.5888671875	10204.7626953125	7594.61279296875	10575.9404296875	11139.9052734375	9362.23046875	10392.9541015625	12206.4462890625	9987.3984375	12725.23828125	10335.3837890625	11738.6318359375	13113.189453125	9954.27734375	10567.3408203125	10864.4443359375	11209.0029296875	9436.4140625	2934.05810546875	7327.17138671875	10470.6640625	12173.0546875	7834.38037109375	7013.14111328125	10274.978515625	10566.9208984375	10628.798828125	10145.6220703125	9078.142578125	9968.498046875	9960.26953125	9762.3671875	9846.875	9274.896484375	9290.5263671875	10194.4638671875	9641.8447265625	10078.8984375	9515.830078125	9540.3984375	10051.9150390625	9791.830078125	10230.435546875	9951.6357421875	9761.013671875	10382.263671875	10317.103515625	10423.4755859375	10247.21875	10911.650390625	10105.099609375	9745.2470703125	10253.505859375	9900.3623046875	8801.3369140625	10216.486328125	10634.2021484375	10752.2587890625	9868.4169921875	10011.58203125	9986.5380859375	10020.84765625	8151.44677734375	9778.9404296875	9768.4130859375	9003.5029296875	9885.798828125	9653.1943359375	9064.66015625	9889.8896484375	9878.8115234375	9357.96484375	9268.95703125	9580.5654296875	9672.1669921875	8992.068359375	9385.4091796875	10256.4130859375	9388.3388671875	10245.375	9839.7109375	9974.3876953125	10019.7900390625	10251.2080078125	9826.94140625	9490.0732421875	9764.5009765625	9610.802734375	9143.3896484375	9499.16796875	10232.009765625	10255.8330078125
1500	1800	9594.314453125	11289.6728515625	8622.822265625	10564.2177734375	8337.4765625	10287.2314453125	11734.228515625	9031.7646484375	8834.052734375	8678.0419921875	6604.5	9278.41015625	10097.1474609375	7643.36962890625	9467.91796875	10919.3583984375	8461.3447265625	10652.611328125	8851.2841796875	9968.7783203125	11438.5791015625	8456.1005859375	8876.9404296875	8999.6396484375	9967.177734375	8525.0322265625	2850.93701171875	7195.6318359375	8649.130859375	11016.26953125	6857.0283203125	6916.9658203125	8955.4814453125	9172.849609375	9265.1552734375	8713.5029296875	8013.4462890625	8554.3779296875	8559.2900390625	8608.837890625	8533.984375	8090.6396484375	7976.7236328125	8731.740234375	8448.2333984375	8728.171875	8253.4951171875	8480.431640625	8831.3095703125	8188.986328125	8874.345703125	8678.6025390625	8318.248046875	8904.791015625	8960.7412109375	8751.2978515625	8447.9169921875	9325.2568359375	8502.458984375	8477.931640625	8977.34765625	8509.470703125	8072.95556640625	8832.7685546875	9287.3115234375	9148.8505859375	8810.5712890625	8830.0986328125	8552.265625	8365.4326171875	7653.0283203125	8643.4345703125	8359.05859375	7801.3291015625	8354.0625	8396.2060546875	7997.09130859375	8539.5546875	8582.7685546875	8118.6865234375	8246.06640625	8119.04833984375	8367.6650390625	8022.826171875	7918.04931640625	8711.0673828125	7956.23291015625	8937.2109375	8426.8740234375	8499.41796875	8619.7373046875	8701.7216796875	8442.99609375	8165.5732421875	8383.19921875	8007.171875	8319.830078125	8632.9140625	8805.3798828125	8534.58984375
1800	2100	9101.54296875	10078.7275390625	7613.90576171875	9315.6796875	7266.69482421875	9228.89453125	11093.2197265625	7970.89453125	8080.24169921875	8101.44287109375	6226.40380859375	8119.84228515625	9510.248046875	7198.23095703125	8944.029296875	9865.1953125	7395.8994140625	9237.5283203125	7732.85693359375	8919.404296875	10303.962890625	7622.0634765625	7831.75341796875	8290.232421875	9783.7919921875	7195.51416015625	2876.16357421875	7310.8935546875	7953.86767578125	10063.7734375	6324.55810546875	6698.9765625	8037.83544921875	8244.2373046875	8319.826171875	7821.63671875	7621.52783203125	8009.271484375	7542.37890625	8012.666015625	7944.5908203125	7374.55322265625	7700.1181640625	7939.3251953125	7647.5634765625	7871.51123046875	7713.93798828125	8219.1923828125	7918.15478515625	7839.0205078125	8074.85791015625	7978.9169921875	7561.00634765625	8346.3837890625	8034.8271484375	8223.66796875	7553.85302734375	8472.78515625	7561.22802734375	7388.751953125	7703.22412109375	7551.17919921875	7509.17578125	8319.072265625	7834.0234375	8125.068359375	8001.37744140625	7676.3681640625	7522.10595703125	7465.44580078125	7079.60205078125	8050.26171875	7398.4013671875	7248.4267578125	7706.0205078125	7634.76806640625	7539.54833984375	7873.904296875	7801.8369140625	7226.85302734375	7485.064453125	7517.0390625	7507.8623046875	7331.48046875	7368.7783203125	7655.7587890625	7071.4326171875	8085.44384765625	7573.8193359375	7606.1201171875	7690.82421875	7769.65478515625	7569.67138671875	7262.33544921875	7477.26025390625	7277.03515625	7375.53173828125	7594.22021484375	7395.43310546875	7815.02099609375
2100	2400	8487.263671875	9246.40625	6704.42431640625	8224.8154296875	6503.43115234375	8413.7255859375	9457.70703125	7170.28955078125	7013.794921875	7222.353515625	5814.52880859375	7116.9658203125	8785.26953125	7320.97412109375	8286.91015625	9034.5703125	6533.623046875	8011.14501953125	7118.74560546875	7810.3505859375	9340.126953125	7106.43115234375	7120.4951171875	7767.6279296875	8939.62890625	7171.52783203125	2682.376953125	7122.2841796875	7068.6396484375	9235.6689453125	5900.20068359375	6532.69482421875	7217.552734375	7573.537109375	7627.23974609375	7209.845703125	6779.8046875	7278.48779296875	6910.29541015625	7193.28076171875	7507.44140625	6729.6181640625	7168.66943359375	7260.001953125	6883.5517578125	7072.90380859375	7086.58154296875	7023.55078125	7241.923828125	7066.86328125	7549.81689453125	6962.298828125	6945.05908203125	6978.2607421875	7299.88916015625	7393.01318359375	6709.87841796875	7610.42138671875	6786.63037109375	6797.13720703125	6931.58935546875	7018.59716796875	6440.9638671875	6993.31591796875	7101.3974609375	7349.626953125	7131.6533203125	6999.251953125	6479.546875	6593.453125	6679.27783203125	7266.2060546875	6675.33544921875	6634.267578125	7069.4404296875	6834.56005859375	6902.35009765625	6924.4140625	7043.2783203125	6429.365234375	6799.16455078125	6854.15869140625	6931.90087890625	6585.68408203125	6542.10693359375	7228.7109375	6467.349609375	7222.7744140625	6884.857421875	6868.5498046875	6857.25	6835.81298828125	6752.74169921875	6602.84423828125	6429.1669921875	6511.244140625	6905.35205078125	6556.87255859375	6657.58740234375	7068.65234375
