frame_start	frame_end	parasubiculum	HATA	fimbria	hippocampal_fissure	HP_tail	presubiculum-head	presubiculum-body	subiculum-head	subiculum-body	CA1-head	CA1-body	CA3-head	CA3-body	CA4-head	CA4-body	GC-ML-DG-head	GC-ML-DG-body	molecular_layer_HP-head	molecular_layer_HP-body	Lateral-nucleus	Basal-nucleus	Central-nucleus	Medial-nucleus	Cortical-nucleus	Accessory-Basal-nucleus	Corticoamygdaloid-transitio	Anterior-amygdaloid-area-AAA	Paralaminar-nucleus
0	30	187.60782	147.37442	20.6454	58.0238	24.15724	276.78944	45.22581	209.73707	33.57535	108.0574	71.09115	58.09982	56.63668	53.99559	43.62008	74.9537	46.56727	151.28791	55.23022	222.14926	335.76392	117.12826	84.28384	95.22569	222.54231	282.24313	428.47824	145.14109
30	60	6935.81233	7471.59244	8734.94668	8114.1415	8125.415	7892.47704	9447.04233	5814.80318	7022.61083	6268.03425	5911.59504	8277.57171	7825.38901	7899.13691	7489.00553	7378.59418	7651.90168	6602.67731	7451.87077	5812.11925	7656.58176	6907.05417	6714.55915	6435.7782	6933.6604	8317.4884	12832.01516	5796.82324
60	90	16764.34534	20366.06136	25344.83168	20710.22896	20299.75463	19162.63304	19844.68526	17652.02753	19229.76881	17160.97014	18343.68563	24900.96937	21908.1417	22401.77917	23122.68306	20817.91209	22570.6501	18923.34934	20752.59212	17499.73289	19741.05273	18391.33729	18979.20843	18788.60733	21324.14939	22650.892	30364.87831	14748.74331
90	120	28628.60962	26744.90357	38361.84185	35287.37266	36433.37493	33794.87089	33301.71123	29281.06108	33583.43059	29831.67522	33830.25839	36500.97067	38406.85135	36835.80269	37882.91892	34000.40985	37980.81982	33367.05201	36935.71426	27736.63655	32287.55792	31254.26492	30747.53878	30673.5412	33283.74953	30257.30701	38272.63311	28662.41782
120	150	33899.84188	37047.81209	47984.83915	40969.23366	42196.16977	38709.51904	38246.92928	35831.53574	40492.84568	38277.14561	41461.42811	46085.42151	45516.10454	42755.06519	46697.54422	41275.97384	45443.8724	40671.2653	43699.48003	37243.0752	38936.13045	41429.76823	37706.39174	36623.23447	40945.59874	35601.46372	44203.85291	33686.54467
150	180	33498.84136	34877.58712	47522.15914	45979.19442	45561.88342	46377.71035	41469.00653	43850.52548	44895.77502	40355.17579	40218.72968	49694.72525	44614.8634	50443.85404	47537.23413	47530.05777	46398.26185	45729.65716	44540.11126	36603.59189	42355.75668	48638.4464	41272.38951	41853.32478	45839.41397	35969.61981	42651.22942	37019.69927
180	240	35982.53073	33570.79469	49444.29629	47030.70793	43643.9071	47731.78561	42793.36054	43331.93124	45645.90798	41510.53626	41901.98415	50418.52519	45015.97018	48919.47882	49178.62847	46306.17561	48360.67642	46588.42449	45810.36007	42828.27436	41430.54442	41502.40668	39139.65681	38669.10026	39962.67618	31608.56782	46298.87455	40675.96344
240	300	35340.24929	33801.63418	48217.46591	44373.90959	41944.83301	41306.09798	40478.69066	42745.33506	45549.87199	40873.45378	40589.39496	43238.75077	44738.69841	44656.25163	48367.15941	42417.39503	47296.49057	43038.49164	45046.88302	42821.60249	44504.52782	44957.62543	39076.02623	38534.74609	43599.79108	32763.26842	46846.55258	39867.83043
300	360	34826.08453	30998.82999	44921.76295	43794.8068	40231.41951	44908.16514	38949.01787	43164.40273	44640.94916	40878.25243	41450.73578	41517.8512	41667.79993	44545.4712	46480.48325	43242.75477	46017.61798	44389.27911	43901.42804	42122.68516	41590.21448	42856.38932	37735.63895	36792.28069	39198.68869	31837.08647	41955.76803	39229.27604
360	480	35448.83127	30072.12014	39704.1494	41320.44445	37755.31956	42082.78593	35844.68413	42297.95663	41731.25604	38544.3741	36438.34038	37511.46924	36444.78574	42841.84068	40900.40581	40568.17718	40132.64171	42149.11124	38907.14567	40832.48567	40230.3971	36939.66688	35070.09626	35087.26525	35917.18104	31115.79743	41473.29282	41393.36313
480	600	29818.13987	29334.98733	36548.15614	36521.25383	32749.20899	38793.27641	33147.23083	37695.73537	37008.95271	33585.78918	32703.90639	33512.55938	33911.60137	37561.07113	36813.43625	36166.34758	36382.01939	36851.57251	35363.03196	36986.14713	35418.62426	34837.59087	34414.03488	34482.65244	33703.86223	28575.32504	35941.78899	34808.2204
600	900	25580.31413	26986.59493	30177.26996	30624.90607	27149.40958	32025.15398	27941.84705	33064.28776	31138.29344	29453.55559	27730.03678	28100.0598	27864.09244	31011.18964	30313.09431	30447.79466	30032.14445	31448.77778	29236.84092	33250.08066	31687.72734	31564.48893	31107.64397	31007.44559	30991.43116	25527.90496	31303.51014	30371.40763
900	1200	21586.28277	22354.01299	25186.3064	24732.43423	22838.9057	26253.42736	23181.91549	27311.02477	26414.83624	24249.26378	23130.99632	22461.50743	23931.42429	24704.79119	25142.27427	24879.35304	24896.09286	25753.43283	24383.58311	28453.23817	25880.23904	28313.84863	27365.64369	27415.23456	25971.84662	21977.93218	28033.34548	24991.35284
1200	1500	19768.60253	20763.34298	22966.65925	21465.96466	19689.67573	22670.40784	21381.1906	23094.85711	22848.55218	21514.37435	20919.60653	20394.81182	21752.86694	21270.96976	21795.37664	21603.64992	21809.02098	22134.04936	21563.83254	24626.57437	22392.36029	23633.66363	23794.0851	24062.98038	22688.74175	19959.42008	22747.4994	22267.90928
1500	1800	16916.522	18423.34766	20048.52451	18906.91396	18039.60783	19229.27818	17792.6336	20842.27965	19589.70037	18618.04419	19562.30865	19400.84147	20603.98408	18852.4701	19439.23509	18961.09237	19470.28528	19387.01186	19472.96605	21828.01423	18830.19449	21545.09033	21851.33147	21745.04948	19262.94031	17090.39103	20537.9085	18615.02734
1800	2100	15137.14925	17256.9941	19533.83278	16778.0597	16687.88409	17060.75725	15701.62309	18511.97976	17947.68661	16260.22026	17618.39278	17516.13463	18928.1916	16337.7961	18200.32312	16483.82986	18220.39357	16872.88852	17705.57908	19491.57636	16192.77214	17877.20399	19430.24526	19421.87295	16842.73403	16149.44456	20101.76716	16287.56035
2100	2400	14693.81973	15431.65975	17857.70889	15277.62397	15706.01354	15940.12587	15180.41892	16330.72204	15584.78834	15886.70242	16384.63761	15816.12376	17826.90077	15032.81879	16224.0481	15558.3228	16353.30924	15736.08879	16161.78794	17482.99639	14709.88787	17473.81497	18248.16602	17949.28916	15860.80624	14276.15726	16134.24504	13908.14889
2400	2700	12717.76525	15487.37595	17277.57025	13792.09256	15056.67313	13001.90838	13694.98974	14568.51871	14654.90977	14168.0104	16089.4927	15382.05742	18135.13356	13896.37851	15798.80065	13808.18241	15837.75627	14157.83955	15632.46098	16915.07596	14481.11971	16646.42887	17386.45424	17494.54408	15195.03338	14209.35004	16428.30112	13300.78228
2700	3000	12241.59679	14861.879	16034.69519	13108.9282	13777.5679	13658.33682	12431.97077	14015.78925	13619.20534	13733.54691	15257.78607	14469.05296	16181.03846	12753.2419	14629.70532	13104.31466	14637.14076	13542.76712	14517.83604	15116.32264	13248.84801	16047.41328	15491.07338	15889.65081	14683.88208	13557.59591	14630.34138	12605.60214
3000	3300	11958.79286	13375.24793	15386.996	12569.30001	12866.30537	12105.38426	11997.68678	12157.65809	12226.43415	12650.23459	13353.41714	14495.38071	15521.2615	12723.08212	13764.73612	12723.98942	13603.23968	12409.31957	13257.02334	13693.02776	11245.92203	14825.91778	14389.65025	14565.44034	12857.79594	11614.8994	12542.70515	10504.98097
3300	3600	9572.00944	12218.0623	13663.22741	10913.85589	11345.72024	10309.48731	10745.78463	10798.59933	11196.13453	10525.22267	12875.25721	12706.91909	13584.71512	10287.54203	12130.2783	10386.88159	12207.1151	10585.69214	12049.93349	11323.46755	8843.44499	12391.14719	12467.78836	12567.29957	10606.18524	10757.3113	12843.32155	8066.42588
3600	3900	9037.24347	11523.31727	12472.58848	10446.74042	11909.93296	9682.53416	10034.28989	10136.02453	11305.99533	11596.68436	12395.59658	11816.12905	13429.421	10172.24615	12038.05912	10526.05911	12034.28039	10959.51956	11870.77594	11488.29184	9979.52082	12282.51183	12063.4082	11840.64686	10726.58979	10254.89736	11118.26375	9430.92273
3900	4200	9192.72508	9766.00488	12205.93444	10476.90058	10199.70403	10287.28842	9286.28211	11378.75284	10465.29511	10038.81263	13435.04504	11975.21018	13387.53918	10801.32425	11706.85145	10269.34078	11771.19873	10614.40888	11818.96774	11501.49463	8813.33404	11164.89499	11274.02441	11142.36333	9214.66225	9234.35711	9498.82752	8596.95779
4200	4500	7410.40352	11548.19145	12449.15815	9304.04642	9417.16245	8210.94988	8875.75142	10060.65159	9985.25555	9405.88341	12084.02167	11024.15297	13548.93956	9480.91569	11773.46218	9339.58356	11703.05937	9243.69686	11507.16521	9183.65315	8656.98884	9979.44184	10777.68178	10742.32817	9683.33726	10576.444	9782.14611	7540.69545
4500	4800	9587.51402	12700.8787	11692.90872	10226.99188	8909.23235	8470.97738	9327.68949	9756.69364	10272.88853	10202.39418	12827.9939	11857.17153	11941.34418	10081.47157	10503.71043	9766.3538	10950.63119	9762.4075	11037.48481	12330.15455	9330.79948	9720.90335	12539.58384	12541.34468	10414.88017	10933.15681	9709.60472	9737.40939
4800	5100	8532.54245	8723.61517	9450.46554	8892.3091	10068.4015	8934.07109	9048.86071	9608.76525	8371.37589	9407.97804	9704.66533	9861.76598	9927.8481	8793.87907	8064.11234	8850.89612	8404.17292	9351.94855	8737.7272	10534.05382	8490.22734	10963.64062	11276.95061	10640.24121	9260.16986	8049.73875	9952.13268	8244.82159
5100	5400	7548.40752	6937.22936	11293.16396	7301.8039	10156.17829	5555.21354	8441.89852	6814.14343	8747.96878	7078.95118	10113.20039	7925.64463	11647.98001	6851.23456	10648.36679	6286.3845	10586.14526	6636.69951	9949.59623	10311.593	8936.95948	8463.86161	7853.90297	7912.98096	8611.92741	8243.73192	12003.1819	7380.00671
