frame_start	frame_end	Left-Cerebral-White-Matter	Left-Cerebellum-White-Matter	Left-Cerebellum-Cortex	Left-Thalamus	Left-Caudate	Left-Putamen	Left-Pallidum	Brain-Stem	Left-Hippocampus	Left-Amygdala	CSF	Left-Accumbens-area	Left-VentralDC	Left-choroid-plexus	Right-Cerebral-White-Matter	Right-Cerebellum-White-Matter	Right-Cerebellum-Cortex	Right-Thalamus	Right-Caudate	Right-Putamen	Right-Pallidum	Right-Hippocampus	Right-Amygdala	Right-Accumbens-area	Right-VentralDC	Right-choroid-plexus	AirCavity	Skull	Vermis	Pons	CSF-ExtraCerebral	Head-ExtraCerebral	ctx-lh-bankssts	ctx-lh-caudalanteriorcingulate	ctx-lh-caudalmiddlefrontal	ctx-lh-cuneus	ctx-lh-entorhinal	ctx-lh-fusiform	ctx-lh-inferiorparietal	ctx-lh-inferiortemporal	ctx-lh-isthmuscingulate	ctx-lh-lateraloccipital	ctx-lh-lateralorbitofrontal	ctx-lh-lingual	ctx-lh-medialorbitofrontal	ctx-lh-middletemporal	ctx-lh-parahippocampal	ctx-lh-paracentral	ctx-lh-parsopercularis	ctx-lh-parsorbitalis	ctx-lh-parstriangularis	ctx-lh-pericalcarine	ctx-lh-postcentral	ctx-lh-posteriorcingulate	ctx-lh-precentral	ctx-lh-precuneus	ctx-lh-rostralanteriorcingulate	ctx-lh-rostralmiddlefrontal	ctx-lh-superiorfrontal	ctx-lh-superiorparietal	ctx-lh-superiortemporal	ctx-lh-supramarginal	ctx-lh-frontalpole	ctx-lh-temporalpole	ctx-lh-transversetemporal	ctx-lh-insula	ctx-rh-bankssts	ctx-rh-caudalanteriorcingulate	ctx-rh-caudalmiddlefrontal	ctx-rh-cuneus	ctx-rh-entorhinal	ctx-rh-fusiform	ctx-rh-inferiorparietal	ctx-rh-inferiortemporal	ctx-rh-isthmuscingulate	ctx-rh-lateraloccipital	ctx-rh-lateralorbitofrontal	ctx-rh-lingual	ctx-rh-medialorbitofrontal	ctx-rh-middletemporal	ctx-rh-parahippocampal	ctx-rh-paracentral	ctx-rh-parsopercularis	ctx-rh-parsorbitalis	ctx-rh-parstriangularis	ctx-rh-pericalcarine	ctx-rh-postcentral	ctx-rh-posteriorcingulate	ctx-rh-precentral	ctx-rh-precuneus	ctx-rh-rostralanteriorcingulate	ctx-rh-rostralmiddlefrontal	ctx-rh-superiorfrontal	ctx-rh-superiorparietal	ctx-rh-superiortemporal	ctx-rh-supramarginal	ctx-rh-frontalpole	ctx-rh-temporalpole	ctx-rh-transversetemporal	ctx-rh-insula
0	30	92.4658432006836	169.7449951171875	297.5645446777344	433.5343017578125	277.59002685546875	386.4425354003906	238.02587890625	231.13075256347656	341.1221618652344	463.083740234375	261.6317443847656	-280.9689025878906	349.3664855957031	700.6599731445312	108.1954574584961	153.1626739501953	265.8914794921875	205.68984985351562	229.59988403320312	463.2046203613281	55.944419860839844	299.6884765625	222.13458251953125	260.971435546875	156.36524963378906	-138.18069458007812	25.514097213745117	93.85243225097656	216.13223266601562	155.3492431640625	248.78269958496094	111.11579132080078	386.7508850097656	589.2509155273438	354.02386474609375	507.434814453125	124.54249572753906	343.23419189453125	348.20721435546875	304.2081298828125	411.26861572265625	321.2569274902344	535.9503784179688	491.2282409667969	773.4254150390625	288.56103515625	655.3717041015625	462.7320861816406	432.7249450683594	438.6027526855469	555.8021240234375	383.6126403808594	381.00115966796875	511.3388977050781	297.1435241699219	364.57513427734375	869.4345703125	434.94866943359375	459.8777770996094	248.15878295898438	513.2728881835938	504.658447265625	286.2956237792969	328.9408264160156	391.2911682128906	712.3719482421875	382.7207946777344	612.459716796875	345.46466064453125	385.9583740234375	805.9869995117188	340.7586975097656	291.0233459472656	265.8934631347656	205.5781707763672	244.4245147705078	570.1221923828125	307.8431701660156	547.756103515625	284.3452453613281	591.1679077148438	411.2367858886719	599.5665893554688	444.1700134277344	368.59906005859375	591.316650390625	363.68841552734375	192.74697875976562	367.57452392578125	370.9819641113281	363.19329833984375	285.9991760253906	322.2112731933594	132.8786163330078	542.0191040039062	431.8766174316406	95.0367660522461	232.4966583251953	693.4490356445312	493.6408386230469
30	60	1106.0665283203125	3052.809326171875	4737.60205078125	5488.79931640625	6052.56640625	7637.2998046875	2959.377197265625	3426.856201171875	5522.4345703125	4162.53076171875	2181.23486328125	4246.07177734375	3208.902587890625	17049.306640625	1258.0201416015625	2555.946044921875	5243.0703125	5023.013671875	7101.5322265625	6785.18115234375	1975.481201171875	4531.439453125	4395.98681640625	3424.389404296875	3943.742919921875	19597.21484375	101.39083099365234	1072.0147705078125	6213.30029296875	3698.373046875	2295.347900390625	1380.421875	6651.384765625	7445.11962890625	8800.1689453125	9743.2666015625	4822.3125	6450.86865234375	6719.67822265625	6806.0244140625	7616.42578125	6417.56640625	7897.9287109375	7512.56201171875	10108.5498046875	6187.94873046875	4093.749267578125	7317.09912109375	8722.6611328125	8413.1162109375	8793.3564453125	12508.5634765625	7826.05712890625	6783.99853515625	7252.08642578125	8133.07666015625	7075.0185546875	8704.515625	7850.23486328125	6706.662109375	6390.35888671875	7776.478515625	9071.01171875	4640.39404296875	8942.18359375	7416.33447265625	6751.4462890625	6087.193359375	7237.2822265625	9001.884765625	4708.98046875	6520.08642578125	6878.43212890625	5752.798828125	7213.83251953125	6976.68115234375	8491.93359375	7540.01708984375	7628.49365234375	5296.19677734375	5921.45751953125	6139.03857421875	7624.88330078125	7129.52783203125	7413.06201171875	10431.9814453125	6607.7744140625	7000.88427734375	6922.6103515625	7528.22509765625	5788.40771484375	7746.40673828125	7245.1337890625	6250.11865234375	6233.640625	7166.00830078125	9516.10546875	3749.176513671875	9511.2509765625	6379.9658203125
60	90	2554.6826171875	6247.70849609375	11537.6650390625	11804.65234375	15272.3837890625	17966.666015625	5023.13671875	7507.75341796875	13128.3310546875	8773.837890625	5142.6337890625	10393.75	7742.80859375	38373.29296875	2783.771728515625	6209.89501953125	11407.7353515625	11618.6875	16397.056640625	15859.1376953125	6761.58056640625	11159.9833984375	7122.37109375	18343.314453125	8306.9462890625	37679.7109375	112.23954010009766	2211.38916015625	12841.732421875	7922.86181640625	4101.517578125	2561.437255859375	16489.818359375	17438.75	19528.982421875	20788.369140625	8504.375	14597.0068359375	16343.7451171875	15643.8427734375	16899.0546875	15051.6650390625	18307.15234375	17423.1875	20338.908203125	14397.6318359375	8538.8076171875	17354.80078125	18482.724609375	19314.3125	19290.568359375	28417.830078125	18413.892578125	16677.6953125	16938.169921875	18787.798828125	16526.24609375	21041.41796875	18813.619140625	16295.96484375	14337.3291015625	18752.91796875	19815.947265625	10789.8564453125	21440.62109375	14663.4169921875	15956.1376953125	10663.779296875	17621.572265625	21741.75390625	8673.94140625	14538.2265625	16079.8623046875	13074.666015625	15199.662109375	16479.986328125	18053.546875	17661.423828125	16428.685546875	12671.853515625	9225.9951171875	13405.9052734375	15111.7216796875	15730.63671875	18195.298828125	26064.025390625	16614.380859375	15268.146484375	16072.7919921875	17955.87890625	14138.0888671875	18635.474609375	16741.349609375	16012.5654296875	13313.3994140625	16633.798828125	21895.330078125	10068.1513671875	17595.171875	14765.708984375
90	120	4469.29150390625	11964.6201171875	19971.31640625	21240.298828125	28681.9921875	32489.041015625	8762.12890625	11501.8603515625	21722.3984375	15805.8251953125	8459.2236328125	18907.765625	13744.1640625	82255.3203125	5091.47265625	11305.2109375	20843.494140625	21645.7578125	28282.701171875	29062.154296875	9930.0478515625	20165.28515625	15164.94140625	24690.58984375	16400.794921875	64333.33984375	451.8882141113281	3994.229736328125	27468.357421875	15160.09375	6356.1376953125	4341.404296875	30712.099609375	27865.6015625	37795.50390625	38658.65625	17750.296875	26268.205078125	30769.34765625	28739.736328125	30073.962890625	27743.80078125	33392.53125	31428.025390625	37334.375	26250.646484375	19165.458984375	32401.2109375	34505.12109375	32580.294921875	36323.71484375	55145.41015625	34579.84375	32652.234375	31209.34765625	36078.44921875	30519.244140625	37103.6640625	34580.9453125	29417.46875	25716.240234375	33406.75390625	36233.9921875	19042.4765625	32541.083984375	25930.900390625	29354.0234375	19753.482421875	32456.89453125	40193.4375	15025.94921875	25129.41796875	30424.244140625	24614.408203125	30145.83203125	30933.533203125	33556.33203125	32336.80859375	32306.58203125	23242.380859375	18098.474609375	27544.263671875	30923.107421875	28533.857421875	33266.2890625	46090.31640625	32010.44921875	28010.505859375	29605.60546875	32401.712890625	23288.041015625	33499.55078125	31493.21875	31448.146484375	25453.1640625	30899.32421875	36099.58984375	20608.287109375	31889.708984375	25512.564453125
120	150	6336.6640625	15617.4951171875	28576.962890625	29215.435546875	39038.82421875	44135.1015625	13628.21875	16284.302734375	27120.4453125	22119.513671875	13477.365234375	28650.35546875	19804.482421875	71204.6328125	6873.486328125	16342.3671875	28512.158203125	29168.48828125	41061.484375	42013.40625	13494.90625	26996.453125	21276.83984375	21708.419921875	19655.927734375	80587.59375	616.8500366210938	5195.3544921875	35849.671875	20805.646484375	7022.76611328125	5653.337890625	40025.390625	32874.671875	51874.05859375	55326.80859375	20824.1484375	36896.85546875	40868.49609375	38201.8125	39343.32421875	41017.58203125	43801.80078125	45584.03125	50215.41796875	36068.0546875	28429.142578125	40297.09765625	46814.21875	45525.63671875	48244.15234375	81767.3046875	46274.20703125	40581.5859375	44404.203125	47280.28515625	39512.24609375	51203.52734375	47719.00390625	44445.01171875	35799.2421875	44566.09375	50135.421875	27727.6953125	39429.30859375	33063.36328125	41021.6640625	30814.99609375	46691.8828125	58624.0546875	21408.150390625	34824.51171875	41791.8359375	35498.89453125	38593.29296875	45052.078125	42574.55859375	43786.77734375	41079.84375	32614.220703125	20150.19921875	40766.94921875	40686.13671875	39254.9296875	44760.70703125	70089.484375	44438.5234375	37130.80078125	42027.359375	45301.33984375	28499.458984375	47623.609375	43276.73046875	43735.93359375	34428.6171875	43288.69140625	50610.39453125	27830.677734375	48503.3984375	31961.10546875
150	180	7108.61279296875	16581.81640625	29948.693359375	31620.57421875	44952.79296875	45296.21484375	14832.51953125	17138.96484375	27403.990234375	22794.658203125	10558.9033203125	26961.41796875	21228.791015625	88650.171875	7266.4404296875	16633.169921875	29775.5625	30997.255859375	43872.3828125	44295.7578125	16002.53125	28912.9375	22397.953125	26534.3984375	20174.84375	59318.37890625	513.379150390625	5420.2294921875	36188.671875	22117.916015625	5635.38525390625	6021.2021484375	44251.546875	39990.84375	51863.9375	59034.15625	22738.48828125	37406.87109375	44085.5703125	39846.1640625	41092.05859375	40981.453125	47076.87890625	43750.44921875	48536.21484375	39236.390625	26089.046875	44434.16015625	48951.7421875	44451.90625	49459.1328125	83094.5546875	49087.19921875	41581.64453125	46137.73046875	48332.7109375	40350.7890625	53097.78125	47834.15234375	45500.42578125	35133.3046875	45663.48046875	52406.1484375	24416.748046875	49646.46484375	32820.05078125	42663.03515625	27403.462890625	48689.65234375	63088.79296875	19234.646484375	37576.49609375	45237.1484375	37521.9296875	43412.09765625	45053.53125	44420.30078125	47749.234375	46625.84765625	35456.3125	20134.556640625	39293.9453125	42719.69140625	41683.0078125	45450.3828125	71619.59375	45049.90234375	37315.1015625	45661.03515625	46751.87109375	24980.796875	49942.6953125	45998.5234375	47037.14453125	36132.75390625	44735.47265625	51677.2578125	26602.7109375	50432.8046875	33724.12109375
180	240	7111.501953125	16626.21875	29204.5	31025.267578125	43729.10546875	44664.671875	16588.1171875	17494.779296875	25107.8671875	23488.23046875	8507.5341796875	24027.935546875	19633.71875	60075.09765625	7348.75146484375	15510.525390625	29694.689453125	30449.8359375	46130.64453125	44010.0625	17103.7890625	26428.275390625	23811.9921875	20819.05078125	20948.69140625	73732.375	382.65850830078125	5359.99658203125	36883.19921875	21256.046875	4579.013671875	6202.58642578125	41195.78515625	33246.9375	51702.96484375	57093.7265625	22573.853515625	35937.703125	42719.51171875	40249.11328125	36880.24609375	41336.19140625	43011.1953125	45124.9453125	49641.24609375	38560.1328125	24863.720703125	43923.71484375	45862.99609375	43267.74609375	47517.8046875	81720.1484375	49739.15625	42278.55078125	45685.87109375	47814.9921875	38695.9140625	52462.6640625	47590.04296875	47089.390625	35767.94140625	44325.41015625	48826.55859375	28877.5625	47269.98046875	32409.458984375	41613.12890625	34032.89453125	48633.88671875	60991.19140625	23012.681640625	35847.55078125	43789.09375	36664.6953125	37661.546875	46073.078125	44186.3671875	44776.73046875	42950.16796875	35593.34765625	24641.796875	42138.9765625	41120.0625	41963.6875	45414.515625	63828.34375	44675.2421875	37069.6015625	44319.484375	45438.234375	30786.607421875	48619.81640625	44438.30078125	47767.15234375	35018.015625	45025.03515625	52197.37109375	28235.208984375	47824.515625	31043.966796875
240	300	7452.47021484375	15925.80078125	27534.94140625	29075.076171875	39316.51171875	43944.75	17071.177734375	17743.5390625	24650.30078125	22512.0703125	8158.9228515625	26218.376953125	19264.404296875	49106.91796875	7361.521484375	15346.7578125	27884.58984375	29435.3515625	41032.6640625	42055.421875	16688.228515625	26082.29296875	20838.314453125	20138.8828125	20179.955078125	52489.078125	352.5435485839844	5272.80908203125	35747.3828125	19814.251953125	3987.240966796875	6287.9951171875	41174.359375	32907.71484375	47292.0234375	52417.4609375	20983.794921875	34515.453125	39662.9609375	37862.6015625	32746.40234375	38028.234375	40840.34765625	40779.3359375	45272.40234375	35667.1875	23444.64453125	39927.71484375	42905.83984375	41025.1796875	44007.34765625	68141.6328125	44331.234375	35301.19921875	42562.44140625	43573.1640625	35272.484375	47874.87109375	42433.64453125	43339.51953125	33291.98046875	40729.3984375	43785.14453125	27281.48046875	42229.92578125	32361.849609375	38617.00390625	31738.294921875	43409.40234375	53960.1015625	18703.138671875	32283.61328125	40167.22265625	34837.0078125	36524.08984375	42778.7109375	39860.0078125	42216.81640625	41268.76171875	34305.453125	22703.080078125	38643.01953125	38777.62109375	39663.51953125	42063.0390625	63220.34375	42334.7265625	37710.6953125	41002.6640625	42671.4921875	29447.013671875	45043.1328125	41639.45703125	44959.58203125	33534.71484375	41460.00390625	47118.2265625	27906.24609375	39754.75	32329.814453125
300	360	7541.15234375	15832.6669921875	25613.267578125	28711.2578125	37211.87109375	39362.29296875	16648.3359375	15767.896484375	23404.771484375	24037.2734375	5833.02490234375	22989.951171875	19284.046875	35217.15234375	7517.494140625	15371.15625	25788.087890625	27901.591796875	38151.08984375	38404.21875	17833.208984375	24577.037109375	21170.056640625	23976.462890625	20203.212890625	49678.15234375	167.0966033935547	5357.5048828125	31847.09765625	19892.96484375	2891.662353515625	6305.00146484375	35406.09375	29973.205078125	42481.90234375	48496.75390625	18575.216796875	32145.9140625	36239.30078125	34860.99609375	30598.458984375	36414.6015625	35536.48046875	38349.07421875	42467.7578125	33269.8203125	24639.16796875	36006.5859375	38658.75	35163.3515625	41124.69140625	62358.30078125	41082.0859375	36107.1640625	38335.7109375	38064.84375	34889.3671875	43508.69921875	40046.05859375	40487.26953125	31521.533203125	38075.15234375	42504.08203125	25834.9375	37395.296875	30107.05078125	34086.59375	29162.99609375	40295.61328125	48373.21484375	20142.6640625	31190.748046875	37997.68359375	31933.16015625	35121.5	39563.00390625	37519.86328125	38309.3359375	37568.66796875	32306.740234375	23875.396484375	35033.65234375	35890.7421875	37353.6171875	39713.05859375	53991.01953125	38477.7109375	32209.416015625	38088.65234375	37620.3828125	27011.517578125	41862.06640625	38594.9609375	41682.6328125	30867.390625	36806.17578125	47196.91796875	26861.884765625	36887.03515625	30248.708984375
360	480	7837.43603515625	14275.62109375	23570.1640625	25879.490234375	31670.287109375	36080.87890625	17179.79296875	16265.40625	20131.755859375	21042.99609375	4074.395751953125	25479.234375	17970.208984375	31840.759765625	7554.2890625	14379.943359375	23350.166015625	26518.7421875	33968.91015625	34804.5703125	17153.453125	21447.958984375	22372.515625	23821.603515625	20216.482421875	34365.57421875	260.36822509765625	5446.01953125	27570.791015625	18406.16796875	1716.3970947265625	6273.2138671875	31408.806640625	27551.451171875	36799.89453125	43039.62890625	19590.591796875	28621.62890625	31182.35546875	31281.208984375	27673.673828125	31372.43359375	31792.537109375	34450.46875	37777.72265625	29441.8671875	22902.03515625	32748.845703125	33039.078125	30693.46875	34107.05078125	50044.56640625	35314.8671875	30323.72265625	34035.5625	33808.60546875	29942.228515625	37807.4609375	34892.859375	35705.12109375	28164.3203125	33092.08203125	37237.4609375	25639.4921875	33336.99609375	27819.5625	30466.044921875	25461.89453125	35270.66015625	42268.70703125	21701.455078125	27760.150390625	33442.47265625	29702.078125	32351.185546875	35535.34765625	32564.87109375	34238.140625	31889.677734375	28593.982421875	21155.54296875	31607.3671875	31260.3359375	32964.828125	33912.5546875	46320.00390625	34891.64453125	29639.171875	33340.1484375	33568.1640625	24684.009765625	36606.515625	33836.6796875	37634.3828125	28561.6328125	32791.890625	38189.30078125	25560.01953125	34170.9375	27555.201171875
480	600	8017.48583984375	14011.6904296875	20352.884765625	24127.66015625	27265.830078125	31031.703125	16440.716796875	14662.4111328125	18053.162109375	19670.9453125	1960.0037841796875	24254.84375	18671.75390625	15540.8759765625	7829.17333984375	13920.896484375	20489.82421875	24397.13671875	28843.3828125	28549.404296875	16357.146484375	18556.3984375	20846.0859375	23746.5546875	18644.03515625	21000.677734375	249.82789611816406	5533.35107421875	21835.9921875	17575.552734375	513.5504150390625	6176.0087890625	27297.943359375	24530.18359375	30596.5	36185.546875	19129.130859375	24668.501953125	26884.296875	27024.337890625	22746.611328125	26302.3828125	26970.658203125	28602.71484375	31343.296875	24990.748046875	19733.009765625	28251.4609375	27468.47265625	26649.990234375	28654.208984375	40751.140625	30136.0625	25415.158203125	29193.58203125	28551.3203125	26970.830078125	32337.626953125	29310.01171875	30505.65234375	24389.482421875	27644.517578125	32596.591796875	23494.9453125	28907.43359375	24820.712890625	26263.31640625	24847.361328125	29854.84765625	35461.58984375	18784.810546875	24368.994140625	28792.16015625	26048.076171875	28821.71875	30702.8203125	28440.916015625	29094.66796875	28402.361328125	25381.537109375	19565.103515625	26766.94140625	26689.8359375	28382.611328125	30132.515625	38833.43359375	29083.294921875	27533.1796875	28704.73046875	29084.0078125	21529.55078125	31203.421875	29283.4765625	31669.134765625	24939.111328125	28277.595703125	33279.9921875	23627.88671875	29133.677734375	23282.669921875
600	900	8527.896484375	13199.4072265625	16280.21875	20509.720703125	21607.13671875	24002.85546875	16085.4462890625	13484.1328125	14473.830078125	18113.26171875	540.1868896484375	20010.638671875	16805.07421875	14704.8955078125	8217.646484375	12899.2646484375	16656.68359375	20492.791015625	22617.9140625	23450.3984375	15550.92578125	14141.826171875	18094.326171875	18581.1015625	17002.3125	19371.404296875	101.86991882324219	5665.544921875	17363.041015625	15111.0068359375	321.59661865234375	6176.1689453125	21606.146484375	19326.091796875	24404.814453125	28299.474609375	15775.697265625	19544.791015625	21032.78125	21545.26171875	19953.8359375	20882.955078125	21480.40625	22973.017578125	24548.671875	20298.791015625	17261.6953125	21084.513671875	21628.943359375	21014.71875	22323.716796875	29089.193359375	22985.91015625	20419.916015625	22150.1640625	21925.005859375	21087.56640625	25382.287109375	23042.94140625	23803.919921875	20397.95703125	21676.203125	25294.177734375	21608.8359375	22754.109375	21154.705078125	20150.970703125	20192.4453125	23308.904296875	28652.859375	16926.328125	19771.20703125	22812.287109375	21641.8046875	21511.576171875	24040.287109375	22003.150390625	22782.171875	22785.611328125	21139.705078125	18060.451171875	21214.625	21069.71875	22669.57421875	23776.455078125	27802.99609375	23091.23046875	21414.134765625	22750.419921875	22417.63671875	18460.919921875	24718.23046875	23133.505859375	25585.634765625	20294.5625	22134.84765625	26237.412109375	20201.056640625	21583.015625	20388.787109375
900	1200	8938.96484375	12113.3271484375	13142.1572265625	16727.06640625	16634.81640625	19066.748046875	15895.5390625	12247.29296875	11955.5341796875	15467.443359375	-1141.1884765625	16791.552734375	15761.76953125	10937.638671875	8669.87109375	12546.5966796875	12957.8056640625	17410.5234375	16425.302734375	17917.421875	15160.0595703125	11312.5458984375	16236.216796875	15472.3447265625	15542.7978515625	15063.31640625	48.62962341308594	5906.47509765625	14134.548828125	13949.447265625	235.09912109375	6300.07470703125	17133.318359375	16517.64453125	18934.298828125	22508.41796875	14978.6787109375	16097.798828125	16787.021484375	18381.529296875	16944.298828125	16583.75	17381.861328125	19027.5234375	20338.115234375	16718.53125	13726.1943359375	15833.4267578125	17278.701171875	17509.701171875	17902.716796875	23026.310546875	17488.509765625	16689.65234375	17619.119140625	17285.201171875	16088.548828125	20096.802734375	18211.34375	19223.193359375	16426.294921875	17018.693359375	21566.828125	17526.9453125	19054.8515625	17383.392578125	16256.091796875	17245.0546875	18636.140625	22543.224609375	14909.7841796875	16507.4140625	18274.240234375	17946.73828125	18183.94921875	19831.46484375	18329.177734375	18648.77734375	18412.7734375	17513.73046875	14569.6591796875	17299.38671875	17462.359375	19189.1640625	18708.326171875	22440.634765625	18128.23828125	16933.111328125	17509.3203125	17768.185546875	15337.0224609375	19787.42578125	18318.814453125	20158.328125	16783.419921875	17664.68359375	22166.123046875	17948.8125	17775.333984375	16384.087890625
1200	1500	9319.3212890625	12054.4130859375	10898.7890625	14224.0693359375	12874.15625	14901.8623046875	14968.134765625	10717.888671875	9307.806640625	14293.326171875	-910.4361572265625	11648.712890625	14687.248046875	6176.89990234375	8950.1650390625	12356.9228515625	10963.0556640625	15209.6298828125	13381.501953125	14448.255859375	14620.0146484375	9921.6640625	13925.98046875	14017.1103515625	14689.9873046875	4483.79248046875	-32.036869049072266	6307.8154296875	11222.39453125	13118.0830078125	195.21871948242188	6394.57958984375	16049.3076171875	15145.6875	16109.8369140625	20608.255859375	14172.6103515625	15034.236328125	14365.3212890625	16192.0869140625	15754.15625	14674.0712890625	15872.2734375	17440.59765625	17279.125	14205.751953125	12733.185546875	13630.080078125	15269.6259765625	15157.822265625	15840.8642578125	19767.25	14899.3935546875	14570.779296875	14991.7978515625	15052.060546875	14064.654296875	17487.931640625	15406.9814453125	16827.931640625	14358.5576171875	15011.951171875	18467.69140625	15936.435546875	16798.814453125	16119.357421875	14175.7685546875	13717.4853515625	16570.763671875	19374.30078125	11070.578125	15255.6494140625	16143.3017578125	15942.1796875	16361.224609375	17807.109375	15878.4990234375	16567.98828125	16948.369140625	15202.3876953125	13880.8779296875	14948.21484375	15563.7958984375	16833.544921875	16622.517578125	20383.150390625	15852.9658203125	15500.8837890625	15369.4619140625	15813.54296875	15395.171875	17261.6953125	16008.25	17870.67578125	14665.1337890625	15292.4697265625	20129.333984375	15703.919921875	15767.9521484375	15085.55078125
1500	1800	9456.91015625	11417.587890625	9545.697265625	12833.9072265625	10559.359375	12881.337890625	14510.69140625	10019.4033203125	8842.2587890625	11179.4794921875	-729.3911743164062	8561.7529296875	13905.5771484375	3214.099609375	9146.8642578125	11264.4951171875	9760.2841796875	12872.427734375	11970.8212890625	12922.4990234375	12979.87890625	9595.8408203125	11513.9443359375	13063.0966796875	13323.890625	-1020.705322265625	35.50282669067383	6431.89013671875	8599.6845703125	12638.583984375	326.8529357910156	6583.93115234375	14001.5107421875	14095.9541015625	14320.16796875	18170.814453125	12580.2822265625	14117.9482421875	13142.5078125	14865.8408203125	13614.5732421875	13366.9111328125	13677.2880859375	16895.3984375	15873.6181640625	12931.14453125	11117.392578125	11758.9189453125	13816.458984375	13509.263671875	14191.8291015625	16243.369140625	13423.146484375	12926.23828125	13270.3447265625	13846.537109375	13472.845703125	15733.533203125	13544.5615234375	14706.8388671875	13101.646484375	13263.0390625	16621.44140625	15586.380859375	15678.7685546875	14456.58203125	12913.4794921875	12070.908203125	14269.51171875	17312.9765625	12194.734375	14026.6484375	14453.34765625	14754.6474609375	14256.234375	16535.017578125	14494.9501953125	15526.25	15437.8564453125	14037.2421875	11552.78125	12008.6435546875	13856.36328125	15428.66015625	15375.810546875	17057.84765625	13978.50390625	14266.30078125	13449.203125	14331.974609375	12120.734375	15628.26953125	14182.1767578125	16035.1591796875	13298.27734375	13615.04296875	19559.638671875	12969.943359375	15895.5859375	13529.1787109375
1800	2100	9452.177734375	10875.6298828125	8328.4296875	11193.3466796875	9215.02734375	11485.630859375	14066.1591796875	8765.0859375	7729.93408203125	10648.1875	-777.6781616210938	7875.724609375	11993.6982421875	-993.0237426757812	9137.330078125	10472.185546875	8478.3525390625	11839.5732421875	10297.3115234375	11010.1923828125	12333.330078125	8189.9111328125	10903.51171875	10902.8779296875	13275.1767578125	3044.2041015625	-115.39628601074219	6528.1337890625	8643.8408203125	12078.5302734375	568.5615844726562	6486.69970703125	12707.115234375	11943.1064453125	11837.4306640625	15938.15625	9938.029296875	13052.923828125	11834.2861328125	13633.0625	11673.005859375	12269.41796875	12685.0927734375	15284.0615234375	14335.82421875	11568.529296875	11437.23828125	10189.4521484375	12364.63671875	13727.921875	12612.099609375	15786.865234375	11640.826171875	12196.86328125	11802.451171875	12582.6787109375	12691.978515625	14248.2548828125	11904.2373046875	13263.51171875	11591.6962890625	11818.73046875	16190.9052734375	12974.9013671875	15782.802734375	12919.2138671875	11585.333984375	11455.3447265625	12769.91796875	15226.2451171875	10469.390625	13049.36328125	13063.650390625	13547.1826171875	13981.59375	15368.1650390625	12988.2216796875	13978.37109375	13916.8525390625	12365.24609375	10572.09375	10856.501953125	12855.5302734375	14093.3310546875	13691.6943359375	16369.181640625	12737.7314453125	12226.9697265625	11762.7607421875	12784.197265625	10512.3369140625	14280.3720703125	12608.5126953125	14378.6845703125	12066.072265625	12431.619140625	15701.1943359375	10998.5849609375	13160.990234375	12333.3759765625
2100	2400	9340.330078125	10309.4951171875	7456.06201171875	9741.7080078125	7794.287109375	9921.44140625	11951.4345703125	8001.03369140625	6797.125	10715.8798828125	-733.951904296875	6572.74072265625	11454.0654296875	-3084.15087890625	9031.65234375	10829.357421875	7381.689453125	9991.953125	8089.8486328125	9508.1826171875	10781.2998046875	6839.52294921875	9234.8408203125	5792.3955078125	11853.271484375	2413.453369140625	-120.24894714355469	6542.380859375	7523.04541015625	10678.2431640625	747.1358032226562	6531.8896484375	10851.423828125	10200.333984375	11259.7685546875	15318.3564453125	9619.5810546875	11953.634765625	10786.3076171875	12105.599609375	11942.9072265625	11174.7890625	11723.9697265625	13935.4130859375	13536.625	10370.9619140625	10310.3896484375	8145.8935546875	11403.083984375	10334.9921875	11777.599609375	14300.0	10685.005859375	11065.9912109375	10172.9755859375	10963.361328125	10701.1796875	12682.0859375	10360.8330078125	11813.3583984375	10686.6982421875	10623.6162109375	14235.52734375	12313.6337890625	12546.275390625	11290.8720703125	10476.9248046875	12460.51953125	11684.2978515625	14555.17578125	9612.7216796875	12450.50390625	11736.0927734375	12383.314453125	12582.107421875	14099.412109375	11462.908203125	13268.9248046875	12848.8916015625	11414.4619140625	10086.9453125	10038.2744140625	12154.4853515625	12897.6318359375	12313.4326171875	14107.03515625	11098.7509765625	10033.62890625	10332.1865234375	11741.07421875	9201.2421875	12699.2734375	11026.2255859375	12557.802734375	11029.103515625	11220.818359375	16522.541015625	11415.7373046875	14301.0517578125	10923.291015625
2400	2700	9075.4169921875	9983.9814453125	6193.271484375	8405.8056640625	6735.46923828125	8594.47265625	10219.8505859375	6704.5673828125	7057.84814453125	6972.30859375	-388.3046569824219	3072.448486328125	10583.052734375	-7071.81689453125	8790.0361328125	9828.62890625	6386.9697265625	9049.5673828125	7209.46337890625	8485.1171875	10782.599609375	6681.01513671875	7888.81298828125	5049.453125	9710.3017578125	-136.46881103515625	-150.69989013671875	6518.61474609375	6565.80126953125	10128.671875	830.5365600585938	6511.2255859375	10869.3525390625	9586.509765625	9491.2685546875	13732.5595703125	8648.33984375	11230.267578125	9773.8095703125	11025.3505859375	11275.703125	9983.22265625	10878.4130859375	12762.3447265625	11970.9599609375	9558.0830078125	9210.1630859375	7522.28125	9777.01171875	10717.9580078125	10350.9404296875	13215.5087890625	9082.994140625	9231.869140625	8762.94140625	10485.044921875	9991.8369140625	11528.32421875	9069.3974609375	11010.35546875	9227.0625	9660.50390625	13140.3876953125	10973.494140625	11831.208984375	10916.6953125	10230.64453125	10280.1552734375	10573.8408203125	13679.4990234375	9178.2421875	11109.93359375	11231.380859375	11278.1611328125	11737.7021484375	13189.767578125	11083.5224609375	12505.4482421875	11212.162109375	10825.890625	8596.46875	7486.482421875	10747.4619140625	11294.56640625	12605.8046875	11934.40625	10202.333984375	10138.025390625	9296.9873046875	10849.8955078125	8244.869140625	11840.39453125	9957.8076171875	11873.8857421875	9711.7509765625	10011.111328125	13568.99609375	8843.0517578125	10823.0107421875	9418.37109375
