frame_start	frame_end	Left-AV	Left-CeM	Left-CL	Left-CM	Left-LD	Left-LGN	Left-LP	Left-L-Sg	Left-MDl	Left-MDm	Left-MGN	Left-MV(Re)	Left-Pf	Left-PuA	Left-PuI	Left-PuL	Left-PuM	Left-VA	Left-VAmc	Left-VLa	Left-VLp	Left-VM	Left-VPL	Right-AV	Right-CeM	Right-CL	Right-CM	Right-LD	Right-LGN	Right-LP	Right-L-Sg	Right-MDl	Right-MDm	Right-MGN	Right-MV(Re)	Right-Pf	Right-PuA	Right-PuI	Right-PuL	Right-PuM	Right-VA	Right-VAmc	Right-VLa	Right-VLp	Right-VM	Right-VPL
0	30	14.91697	13.54281	9.43052	10.17183	2.42272	33.16559	4.87445	7.60683	9.59089	12.41708	11.40072	6.71128	4.65606	37.41533	13.89756	27.26066	60.17532	8.17153	21.89582	15.35934	12.09362	9.35955	14.10884	15.07874	87.29055	13.72909	11.24333	3.35356	22.53344	6.57689	2.1123	33.94875	36.76551	11.47726	39.99054	10.82846	6.88077	6.29414	7.95757	6.52257	12.21209	65.26268	17.25791	13.30469	67.2328	25.30102
30	60	2584.0426	1589.37951	3532.02621	2325.45113	3580.45186	2293.9274	2690.94702	1828.2478	2551.26971	2578.80576	2283.72877	1753.8217	1432.23493	3291.23151	2181.67087	1889.51311	2240.52	1620.96441	1236.53177	1887.16814	2202.36999	2115.61255	2045.83544	2517.82196	2636.77198	2648.02455	2193.05101	2771.4426	2547.91701	2906.39581	1778.22487	2987.08573	2765.0137	3274.75839	3741.31303	1568.13282	2805.96969	2008.07199	2103.16774	2113.31001	1989.66483	2684.48855	1807.25493	2575.12016	2245.86922	2205.46839
60	90	9252.49317	7936.6069	10084.01658	7707.40804	8688.65345	6658.82968	8551.98803	7081.65756	10900.79769	10360.56682	7499.87597	7168.09883	6721.18911	8663.56302	6521.01657	7049.32558	7626.41532	6013.79142	7534.82882	6982.38533	8009.20248	5079.84473	7053.10562	8177.88082	7033.52476	9995.17155	7814.47209	9601.81882	7008.54865	11718.18351	7345.19027	11943.65365	9747.19358	6195.92187	5490.88454	8421.39946	10638.41394	7156.18205	9357.87374	7854.3078	5755.14047	5393.98964	7573.66777	9217.51591	7045.57292	8495.24335
90	120	15211.59052	11768.24529	18885.95444	13550.75157	18187.42745	13581.83963	18332.92203	12534.61444	18134.71368	16026.82241	14229.97725	12086.3085	10865.37448	20137.77941	14383.58353	16188.4972	14577.174	10392.01003	12058.4495	13193.58861	14617.04285	11031.69922	15138.42899	15610.9562	11623.50398	18681.51126	15381.68894	17281.02174	13931.39502	19170.31236	12785.36068	21061.59546	17257.80082	13562.97168	11635.66717	13065.05509	19706.01408	12274.87364	16677.84194	15160.00319	10884.96452	11523.81868	14538.04235	15924.31163	10100.75749	14741.42956
120	150	19272.83906	17004.70815	25021.81934	22329.17735	23370.1036	19794.40522	27320.52636	20390.56001	25922.52686	24683.41408	19579.27778	16266.9543	21542.75926	26610.22602	17135.86023	24541.74122	19881.2495	16021.01068	15670.30664	18890.02484	20984.30139	18090.65625	21773.97932	18997.2881	16763.48975	25229.43997	20698.6987	27080.05284	17525.44091	30411.41428	18438.31825	31191.94599	26205.7693	22797.38821	15008.53187	18371.62034	26439.40517	17214.55885	23326.7973	20893.33017	16217.96507	15397.77875	19606.09034	23131.50697	14827.00098	19626.10566
150	180	23498.81039	20104.23749	29975.87061	24700.38928	27523.61213	21043.81121	30658.22587	20186.77721	30829.36509	27804.93135	22855.10515	20450.20166	23318.11555	31492.19155	21857.07212	23739.75644	23248.6736	18674.75912	21851.63532	22370.51439	25640.90791	14895.42188	24154.49146	23492.20715	20632.62853	28349.82578	27653.57461	26246.54996	20474.044	31787.24354	18131.50749	35099.66831	28187.02331	18860.31616	17036.90643	26292.81525	28602.22557	20308.89505	26698.17932	22705.16056	19668.44575	20430.67383	24675.34103	29984.78019	18866.40039	24902.41578
180	240	24135.56723	21245.12972	32389.23047	25833.38948	29687.07231	23123.27316	32776.67324	22610.44336	30542.52696	27678.06987	22241.35612	21536.52578	23764.85467	30549.73729	23598.57874	26873.04251	23209.37239	19369.53973	22921.98103	21601.7863	26190.21106	21729.75586	25483.84849	21101.13418	17539.55451	29025.41484	29023.65667	27961.33368	20177.25511	32523.35166	23950.34397	34460.81652	28935.14713	23839.82012	15240.12997	24980.35635	32949.48928	22412.66541	28605.04662	24662.14404	16468.91428	16116.03971	23616.04296	28409.00394	18615.59505	25499.82612
240	300	22624.03562	20198.27122	28753.97227	27602.58429	25127.94389	22882.44818	29560.52025	22631.42099	31555.01772	28701.5819	23165.4189	19242.79551	26067.83444	30663.07903	23229.89132	26216.98162	24102.24339	19324.57453	19427.22266	24333.78589	26521.5612	19717.16211	25242.52323	20455.21829	20614.6372	27005.26862	27122.35487	26527.70683	20546.02879	30868.65151	20450.13281	32794.25983	28002.23099	21932.42856	21214.99485	24064.77336	30037.10134	21530.7023	27770.73956	23531.56371	17360.47817	22220.40603	22880.82669	27022.24481	19591.24089	24568.6901
300	360	23019.85266	21089.97476	28897.40361	24630.15216	25571.57324	20607.31243	27910.67105	20939.52406	29624.45922	26174.97252	20357.6998	20310.2291	22799.80877	29771.1269	20917.44209	23958.64284	22341.11702	19596.91105	20945.79353	21923.65156	25206.96857	19568.74414	24137.78867	21827.26163	19134.41702	26592.89154	26677.74743	23675.60012	19196.52729	30085.10429	20355.96549	29556.31444	26280.99859	20241.02374	17622.54972	23605.37899	30317.5368	22494.59454	27822.91742	23206.47236	17267.60989	18787.04449	22532.91364	26521.71423	18252.20573	25612.59975
360	480	19733.93415	20183.43135	26085.48213	24665.83938	22264.78396	18356.60454	25546.26528	20501.45401	29708.51546	25309.35586	20298.91362	17284.19326	21144.23117	27541.57659	19962.57994	23550.44963	21108.8322	18584.54553	19104.28599	22344.8035	25226.92956	16697.67969	22884.41577	17884.58934	20317.4034	22864.28346	25366.90992	20411.6233	16730.90837	23000.53748	18117.34201	29241.74072	24342.44051	19009.67845	17652.5182	23812.07964	26672.42348	19581.91943	24179.97963	20604.6908	18136.3778	22032.71137	22509.39709	25088.26703	17561.13997	23289.8151
480	600	19122.37141	19629.63707	21950.77979	23806.42651	17280.13426	18816.22653	19848.84067	18876.0261	25356.7189	22106.58313	21204.7338	18018.43867	19486.08735	24170.63412	19324.22265	21250.49546	18484.06603	17741.65819	19790.17215	21519.981	22639.85869	16688.09766	21446.01419	16992.11334	20341.95294	19288.37161	23867.75117	16444.51259	17489.67479	21078.81088	17289.34842	25440.53692	21591.20689	18894.10823	18915.38725	18893.8178	24371.80425	19455.41475	21761.23625	18155.91604	18161.23377	20739.42036	21787.68952	23433.30202	16927.70508	22376.41545
600	900	16537.04309	17904.80862	19468.66362	21546.61327	15687.45901	17787.99746	18239.5706	17636.97918	22454.184	19424.11167	18320.6304	15267.80791	18846.51887	21424.51496	18167.40067	19129.8961	16718.69186	16643.03836	16659.83357	18879.27324	20758.86757	15587.42871	19498.02625	15330.88039	18137.46437	17017.52448	20574.77201	14347.57653	16098.08274	17567.64618	16446.80317	21667.47619	18387.44202	16851.07928	17020.87473	17222.45396	21344.61191	17636.4309	20034.30551	16546.47341	16378.45352	18864.89757	19891.60157	20795.89826	16110.20247	20035.88661
900	1200	13861.93846	15922.23781	15149.30166	17206.7499	11659.56101	15336.26706	15253.04446	14202.19016	17738.06897	15450.81334	15158.69982	14132.35547	14891.83552	18118.98991	15292.68438	16243.85275	14363.95771	15616.26022	15978.95103	17318.35814	17944.97198	14971.33203	17209.06756	13043.43915	16306.21877	14778.96634	18688.87037	12418.61508	14145.85923	14734.42866	14126.79763	19178.39331	15757.53601	15896.30165	14248.8782	16165.75634	17561.60982	16426.89371	16211.68304	13673.75487	14425.04896	17405.18294	17061.96674	17698.90187	14248.5166	17607.04384
1200	1500	12386.29013	14695.52067	12303.32388	15900.49114	10005.43501	13958.50227	12174.18053	13587.0918	14961.51341	13186.32582	14124.65075	13008.76758	13994.23943	14714.32877	14386.06991	15115.96308	12700.90315	14196.07095	13927.78809	15587.87898	15560.92791	15153.1377	15657.46561	11901.10915	14956.96756	12684.28203	16077.39654	10723.69629	13361.02085	11450.68578	11586.60048	15314.91491	13268.13692	13640.31002	13438.27113	14395.32077	15154.11812	14061.12513	13879.59647	12192.5964	14087.33629	15778.99403	15566.12181	15307.8308	13051.22428	15391.38091
1500	1800	10877.41146	12147.9718	10599.24976	13665.04516	8502.91664	11616.18713	9889.45836	11286.03498	12614.5113	11084.77849	11683.19389	11499.87266	12170.83723	13470.36457	12007.59954	11805.90246	11252.89658	12290.09018	13147.78878	13475.38242	13113.68602	12930.03223	13156.4728	10127.0022	11797.4272	10279.83411	12936.22152	8936.24211	11856.33178	9925.06138	10914.84907	11751.16954	10510.98369	11908.18598	11598.32777	11567.62165	11933.46063	12070.07949	12589.04554	10596.13202	11777.50499	12484.81359	13175.08753	13394.2863	11778.84961	13022.59558
1800	2100	9604.29001	12209.92619	9877.73467	12101.58325	7577.48423	11235.67485	9156.53448	11009.59504	11075.95189	10104.19546	11192.05297	10380.33555	10907.71685	10767.84634	10833.06742	10846.33235	9539.67222	11549.16834	13838.43555	12037.91225	11734.55791	13673.61328	12227.27374	9046.05123	9965.11679	8763.35947	10530.14852	7288.72045	11469.86295	8452.79002	10144.78505	10010.31141	9104.34198	10689.38342	8659.91033	9354.45793	11121.03483	11248.72259	10916.85164	9680.91396	10719.71147	10982.98828	11162.7209	10876.78729	10727.76465	11208.45227
2100	2400	7910.17121	9702.06935	7503.71223	9393.91107	5897.6809	10897.40403	7545.04378	8213.85645	9526.84985	8185.98678	10774.35689	8715.14561	8338.98555	9133.18613	9975.57682	9724.48723	8619.96663	10091.57885	9805.47907	11225.77349	10613.14583	11430.60156	11003.15008	7584.82044	9628.48871	7560.50645	9274.31864	7385.85945	9934.67917	8424.55373	9195.96094	9396.14988	8298.65377	11164.7085	9286.36177	8178.75663	8999.11227	9265.10632	9288.54025	8442.16486	9781.08561	10645.38455	10114.09772	9833.52503	9557.45638	9989.05679
2400	2700	7561.54185	7748.72264	6611.5075	8716.40699	5925.28509	9574.45773	6807.63877	7276.68928	7478.77459	6885.08943	8218.47449	7791.17739	7837.53738	7633.49613	8314.92791	8870.96861	7666.655	8729.739	7796.253	9128.45314	8586.61715	9073.58105	9041.67971	7688.26822	7637.50266	6398.52581	8464.47644	5044.61624	9237.42443	6020.42155	7281.41477	7449.06179	6431.14692	8651.59039	6645.99001	7198.38055	7497.28754	8901.66315	8649.7106	7791.81041	9284.45346	7797.62174	9835.2861	9148.41108	9471.55762	9272.25548
2700	3000	6109.25968	7868.87925	5868.06677	7777.05565	4658.85906	9083.10835	5514.54267	6811.33125	7221.2069	6482.41838	8624.21716	8354.32617	6386.79683	6865.32773	6879.75996	7582.23732	6614.31159	7940.09765	8647.0752	8058.9402	7832.80995	9885.3125	8209.34366	6120.57218	7217.2923	6273.58734	7643.54933	6003.77927	9272.38782	6060.94738	6702.67904	6914.51707	5965.31805	8422.14311	7448.6689	6221.13402	7582.15354	7720.38961	7844.60534	6520.49006	7447.43745	7137.76166	8006.72769	8123.13033	8826.92741	9100.62716
3000	3300	6073.18858	7598.82868	4818.89517	6494.24889	3648.26667	8075.4236	4574.6792	6288.03183	6417.13208	5850.17736	7247.97916	7160.79287	5762.979	6481.77492	7011.69605	7125.73995	6303.16093	7631.76884	7898.43359	7286.51663	6969.08105	8833.78418	7470.85755	6275.45721	6465.43988	6373.2946	6291.04698	5468.6996	8486.50019	5170.09522	4955.56098	6203.75828	5668.69119	6914.59844	6587.34712	5373.60153	6101.46872	7464.22032	6672.47503	6088.55281	6596.92422	6802.67822	7361.58047	6965.27633	7818.5306	7609.23632
3300	3600	5440.72722	5898.978	5558.29031	5062.41601	5100.83016	7250.50884	5070.30893	5628.65567	5268.70247	4978.79204	5893.29902	6608.7666	5113.36601	5611.43944	5527.79918	6828.16271	6285.05239	6071.84663	6583.41469	6355.22985	6291.75469	6856.97559	6849.1083	6590.14979	6953.09778	5801.45742	6030.55142	5170.68984	6884.31935	5240.49951	5968.28163	5793.00783	5265.88647	6531.42799	5753.31676	6292.82188	5924.57852	6859.33001	6474.95289	6136.5008	7567.60533	7707.12636	7472.56052	6680.56776	6425.05778	6301.41505
3600	3900	4966.7195	5231.57234	5013.51387	7133.60286	4552.20361	7466.35664	4847.14047	6453.00479	5150.86753	4894.20421	7307.59125	5978.53325	6188.04033	5945.66466	6009.53313	7383.13532	6048.11317	6074.22312	5844.82596	6338.66543	5679.40089	7068.84668	6433.76624	4743.89454	4760.90537	4578.0763	6048.58863	3480.52602	7782.61704	3897.09924	5005.14334	4590.59017	4429.19854	5576.96394	4701.31052	6320.56315	5498.16017	5590.54099	6014.41023	5448.1531	5885.52693	5065.72331	5869.83801	5537.03046	6530.89453	5758.94839
3900	4200	4781.24828	5422.806	5173.61107	4755.12909	5058.68966	6601.96617	5976.23461	5555.54752	4946.39421	4919.94333	5258.98969	4451.72747	4066.29348	4856.09861	5537.52491	7320.17241	5428.25627	5030.62417	5965.63728	6101.62283	5892.56994	7059.38672	5872.65756	4566.15094	6493.00291	4593.63364	5344.15456	4736.65134	6709.28232	4853.14276	6516.21305	5968.76814	5381.16491	6847.22527	5470.62558	4288.8346	4588.57087	5780.43907	5626.86809	5132.97851	5593.40899	7353.44575	5584.46884	5807.57837	6791.25114	6177.14926
4200	4500	4337.66774	5984.46863	4384.81876	4407.39389	4479.88865	6148.16567	4313.33242	5158.39702	3878.1542	4174.86967	4921.63534	4764.3592	3544.95962	4878.98935	5313.99696	5616.85169	5441.4609	5914.48695	6383.51102	5695.38066	4664.30635	7869.94189	5350.02876	4277.95325	3833.04484	5047.23301	4588.35962	4946.95316	5880.70582	4279.64324	4838.05054	4292.48497	3937.11543	4635.44751	4074.89495	3178.02242	4759.64624	5089.66167	5240.08438	4947.9125	4787.24614	4327.9391	5860.29648	5890.73424	8043.08952	6213.39723
4500	4800	5358.64227	5203.38581	4950.04624	6281.4368	5023.35454	7023.10733	3845.13058	4291.04711	4521.34251	4411.80678	5297.4659	4528.45959	5385.69475	4900.2535	5761.91694	5075.92583	5828.15521	4997.32312	4508.99372	5327.9221	5391.14807	7374.96289	5375.10034	4863.30102	4854.34514	4434.84132	3772.76359	4261.93613	6044.90788	2684.68739	3824.86759	4419.76861	4167.63589	5853.69694	5331.28094	3573.9669	4232.8567	4255.4816	5476.77102	4858.00278	5127.77406	4326.82935	5058.38794	4599.18105	6603.21712	5149.44257
4800	5100	3779.17834	4447.9807	3861.12421	5012.53675	3990.58168	6382.95953	3938.59893	2867.58143	3623.72723	3781.24808	4248.75731	4033.10715	4203.69775	4273.91315	4813.4224	4283.57743	4657.04891	4730.78671	4631.36823	5543.71339	5482.71906	7695.36865	5350.78209	4413.52923	3479.32223	4060.31348	5355.10755	4419.15364	4852.67578	3640.34358	5126.35031	4432.06112	3544.95358	5524.99197	3038.25175	4270.12702	4581.94949	4398.57564	4795.38401	4293.20564	4764.94417	3461.82704	5467.75969	5239.76282	6678.52181	5164.24492
5100	5400	3828.23936	4125.08294	3565.62905	5348.11471	3271.30739	5254.52275	4744.10998	6769.38846	4719.77117	3892.22329	6124.12096	4077.77744	5200.79348	4176.19849	5248.00677	4530.34417	4479.76951	4709.586	4785.21931	5403.66926	5816.96007	3174.43164	4802.22921	3254.75249	4089.29918	3728.61071	5989.08939	3331.11863	5371.11206	4078.7888	3721.09285	3741.57451	3954.94966	5738.10275	3799.95885	6806.70095	4150.44287	3788.88321	5154.9557	5276.49009	4345.3485	5329.93077	4422.17254	4396.94218	6023.57585	4927.01941
5400	5700	3921.47358	7682.63698	4009.19141	3577.39069	4416.67897	5810.13416	3727.36766	4780.67203	3614.61988	4251.91679	5012.4115	5679.06221	3520.03346	4251.46771	5546.75554	6101.11271	4016.42549	5538.51179	7920.63749	5054.8936	4239.52636	5188.10645	5571.31561	3125.30373	3303.98765	3875.03358	4740.30285	3379.06716	4272.68563	3554.80417	4057.35506	5584.77372	4487.12777	3879.94713	2489.44094	4417.43875	3714.13462	3468.33838	4245.13583	4043.67181	3983.87103	3010.37739	4275.99902	5477.58168	6184.889	4991.92384
5700	6000	3547.13666	3564.54245	4526.61814	3510.5378	5064.52374	5628.49007	4133.21461	3507.09668	2905.54898	3155.45412	4010.21437	3740.58708	2833.27256	4217.42239	4679.72632	4226.84192	4507.47268	4246.32875	3466.75691	5024.61723	4174.52761	5653.66797	4582.05439	3253.06041	4068.4013	3080.63135	4169.41655	2336.42223	4811.4023	3301.28748	4560.12568	3609.90158	3692.68645	3994.58278	3996.85416	4727.97728	4568.78418	4721.67135	5374.31108	4204.51942	4476.7639	4059.36336	4637.74825	3822.78949	5793.17839	5051.94147
6000	6300	3598.97121	4891.76296	3515.23885	2768.93987	2091.78834	4192.43239	3808.16357	3345.52184	5100.67035	5288.72118	5444.77237	5209.05396	2922.53536	3696.42293	4169.57424	3996.77749	4275.91453	4196.04441	5841.24142	4343.22215	4518.21499	6193.37793	4053.37559	2483.92918	3830.33177	2659.29198	4199.24975	1490.381	2919.5156	2865.37868	4544.98912	3804.98922	4359.43263	3999.82551	4782.8426	3837.75311	4380.34158	3401.07182	4917.70582	4062.93175	2848.01425	3806.09405	3668.326	3534.28829	5007.04012	4308.36071
6300	6600	2947.36039	5533.37248	2698.72566	5140.91408	1733.04427	4578.59406	2618.92955	3867.03791	4537.76168	4481.97163	6041.34883	3487.20623	6130.43098	5263.93656	3879.60496	5082.55073	4483.43981	4553.7274	6829.77183	4709.32202	4322.48761	5421.00537	5704.07657	3052.05204	4626.50938	2740.94674	4183.72649	2066.91585	4966.70771	1714.4104	1711.53151	3622.42174	3896.54457	2402.69457	3939.05038	4234.02798	3491.50425	3135.40376	4297.57062	3994.88993	3746.56123	5884.51736	4554.03764	5179.26681	5876.62809	5074.98481
6600	6900	3156.79293	5618.04009	2911.43361	2743.13336	3918.77728	4934.62724	4368.75568	3667.46208	4496.40675	4907.69583	4176.41406	7255.55552	1809.05825	3873.93469	5116.65595	4478.69525	4114.96821	3827.38531	8013.44106	4051.19591	3063.80288	6416.99561	4067.23871	1973.17101	3479.64512	1798.09492	5950.35189	1265.2016	3596.88435	1916.3058	1945.78182	3413.04064	4092.34674	2407.88621	4954.49157	4982.78691	4660.52012	3068.66763	5107.19167	3409.14223	4179.33181	4442.92299	3641.24058	3402.99011	5433.80314	4817.48655
6900	7200	3416.68178	2673.48363	4144.43262	5139.80672	2878.69156	2915.97744	3488.40872	2764.47356	5149.35078	4300.63362	3338.69563	2273.15045	4072.65578	4281.51361	3490.37911	3815.53258	4238.23333	2561.28462	2399.33196	3669.00462	4598.707	1510.0957	3847.96122	2408.46221	4466.04313	2197.45811	4938.87833	2872.55688	5165.00966	4447.41528	3802.62451	4342.83358	4421.22725	4991.38309	6607.79577	4321.04937	4901.81502	4355.76547	3612.47752	3286.59933	4819.87903	6232.04053	4435.10198	3904.2515	4811.81624	4543.49869
