frame_start	frame_end	Left-Cerebral-White-Matter	Left-Cerebellum-White-Matter	Left-Cerebellum-Cortex	Left-Thalamus	Left-Caudate	Left-Putamen	Left-Pallidum	Brain-Stem	Left-Hippocampus	Left-Amygdala	CSF	Left-Accumbens-area	Left-VentralDC	Left-choroid-plexus	Right-Cerebral-White-Matter	Right-Cerebellum-White-Matter	Right-Cerebellum-Cortex	Right-Thalamus	Right-Caudate	Right-Putamen	Right-Pallidum	Right-Hippocampus	Right-Amygdala	Right-Accumbens-area	Right-VentralDC	Right-choroid-plexus	AirCavity	Skull	Vermis	Pons	CSF-ExtraCerebral	Head-ExtraCerebral	ctx-lh-bankssts	ctx-lh-caudalanteriorcingulate	ctx-lh-caudalmiddlefrontal	ctx-lh-cuneus	ctx-lh-entorhinal	ctx-lh-fusiform	ctx-lh-inferiorparietal	ctx-lh-inferiortemporal	ctx-lh-isthmuscingulate	ctx-lh-lateraloccipital	ctx-lh-lateralorbitofrontal	ctx-lh-lingual	ctx-lh-medialorbitofrontal	ctx-lh-middletemporal	ctx-lh-parahippocampal	ctx-lh-paracentral	ctx-lh-parsopercularis	ctx-lh-parsorbitalis	ctx-lh-parstriangularis	ctx-lh-pericalcarine	ctx-lh-postcentral	ctx-lh-posteriorcingulate	ctx-lh-precentral	ctx-lh-precuneus	ctx-lh-rostralanteriorcingulate	ctx-lh-rostralmiddlefrontal	ctx-lh-superiorfrontal	ctx-lh-superiorparietal	ctx-lh-superiortemporal	ctx-lh-supramarginal	ctx-lh-frontalpole	ctx-lh-temporalpole	ctx-lh-transversetemporal	ctx-lh-insula	ctx-rh-bankssts	ctx-rh-caudalanteriorcingulate	ctx-rh-caudalmiddlefrontal	ctx-rh-cuneus	ctx-rh-entorhinal	ctx-rh-fusiform	ctx-rh-inferiorparietal	ctx-rh-inferiortemporal	ctx-rh-isthmuscingulate	ctx-rh-lateraloccipital	ctx-rh-lateralorbitofrontal	ctx-rh-lingual	ctx-rh-medialorbitofrontal	ctx-rh-middletemporal	ctx-rh-parahippocampal	ctx-rh-paracentral	ctx-rh-parsopercularis	ctx-rh-parsorbitalis	ctx-rh-parstriangularis	ctx-rh-pericalcarine	ctx-rh-postcentral	ctx-rh-posteriorcingulate	ctx-rh-precentral	ctx-rh-precuneus	ctx-rh-rostralanteriorcingulate	ctx-rh-rostralmiddlefrontal	ctx-rh-superiorfrontal	ctx-rh-superiorparietal	ctx-rh-superiortemporal	ctx-rh-supramarginal	ctx-rh-frontalpole	ctx-rh-temporalpole	ctx-rh-transversetemporal	ctx-rh-insula
0	30	380.991455078125	615.87451171875	102.32359313964844	367.3668518066406	-568.83642578125	2420.915771484375	-4265.3330078125	3232.4931640625	-1076.527587890625	4882.1865234375	-2027.28564453125	-27363.177734375	-277.9834899902344	14429.1044921875	255.20697021484375	955.6239013671875	204.43643188476562	255.02520751953125	4770.12451171875	-3093.814697265625	2573.4404296875	219.5298309326172	4094.564697265625	23949.50390625	-681.1436157226562	4595.904296875	-339.7158203125	130.0577850341797	-2091.96875	-1101.8797607421875	29.306852340698242	53.04888153076172	2125.7470703125	3372.176513671875	431.84393310546875	2384.220703125	3828.894775390625	1324.1441650390625	-291.7909240722656	-186.734130859375	-4113.0576171875	-252.28237915039062	639.47119140625	471.0886535644531	-3719.875	-225.77609252929688	-2483.3251953125	2845.8427734375	272.03521728515625	-538.2980346679688	-755.8699340820312	800.0751953125	-364.2209167480469	-2389.4130859375	513.985107421875	773.4688110351562	9035.650390625	438.08807373046875	917.5469360351562	-160.93157958984375	-715.0654296875	995.1109619140625	5.58411169052124	-819.8147583007812	2288.96875	3996.062744140625	1189.6766357421875	-4826.66552734375	936.9733276367188	-1564.3548583984375	3009.59375	1485.8646240234375	284.0252380371094	456.13861083984375	2928.899169921875	-122.12659454345703	-1468.5604248046875	957.0208129882812	7232.787109375	-174.0608367919922	-5873.59765625	-856.8570556640625	1372.7337646484375	376.521484375	238.19578552246094	1714.821533203125	851.0442504882812	1872.20166015625	126.00711059570312	1580.941650390625	-8298.4951171875	1149.9664306640625	661.2796020507812	13.53522777557373	-99.70249938964844	892.0730590820312	-3527.298828125	-47.68046569824219	5446.87646484375	3906.83154296875
30	60	8125.310546875	15358.6064453125	7646.16357421875	10444.21484375	-14954.3359375	55109.65234375	-61108.59765625	21686.859375	22789.515625	62213.390625	-19499.35546875	-169403.75	988.7244873046875	112616.2109375	8849.7177734375	24360.814453125	5671.4619140625	18873.5546875	24213.001953125	2398.11376953125	14506.7578125	32240.1171875	81573.234375	107021.6015625	-13193.2958984375	122306.2890625	-4552.5546875	3260.53125	-38500.328125	-8200.6357421875	-7740.716796875	2838.544189453125	19725.755859375	42241.68359375	4095.77001953125	37701.1484375	56627.14453125	39271.53125	-2752.71484375	-12114.298828125	-20803.623046875	-3503.668212890625	11308.0771484375	24990.404296875	-31941.103515625	-2298.8359375	-20885.791015625	61610.87890625	16991.513671875	4790.92431640625	1361.826904296875	29327.28515625	-2613.26220703125	-9344.0810546875	15027.8818359375	25215.6640625	119968.65625	11004.1787109375	24427.146484375	2008.48779296875	7511.5126953125	14261.7685546875	-2674.615478515625	-9856.5908203125	35127.8984375	30420.439453125	19143.466796875	-70090.015625	12003.9384765625	-10541.2890625	-7196.421875	42673.9453125	5608.08349609375	-2505.776611328125	-50295.63671875	4028.6533203125	-20479.431640625	12022.982421875	96861.03125	-2602.470703125	-65978.890625	-27195.61328125	14446.5693359375	19792.908203125	13993.7998046875	34387.5625	16583.435546875	-4910.69384765625	16662.07421875	30159.642578125	-99210.8828125	19636.751953125	16610.93359375	4598.40576171875	12708.0810546875	12183.447265625	-63045.4140625	8363.1435546875	-29258.69140625	35521.4375
60	90	18893.806640625	35349.73046875	17066.220703125	34255.296875	-56966.89453125	143609.59375	-144519.140625	26600.75390625	21214.845703125	192433.578125	-42315.73046875	-394446.5625	13965.4072265625	261697.59375	18655.2421875	54803.875	15694.1103515625	26702.775390625	90419.4765625	-26391.171875	67386.78125	93970.546875	120104.9296875	218799.25	-33595.59765625	299971.875	-8436.1328125	6141.5947265625	-98174.2109375	-10534.2138671875	-24553.220703125	7333.1865234375	28622.66796875	111470.9453125	12966.748046875	99989.125	99382.2734375	80538.234375	-3454.18701171875	-30795.095703125	-92338.203125	-6745.65673828125	34766.7734375	67698.8984375	-75960.3203125	5698.29248046875	18980.541015625	112809.484375	39663.10546875	3628.9462890625	12071.2705078125	62818.68359375	3694.333251953125	13750.4541015625	32281.76953125	61808.41015625	285287.40625	24870.25390625	54643.78515625	8792.91015625	17554.42578125	27445.138671875	6253.0556640625	-1047.5439453125	68526.0546875	42346.67578125	34028.81640625	-168111.765625	31405.416015625	-34744.3671875	-48937.55859375	92356.2578125	15470.3525390625	-6736.18994140625	-35625.3671875	17278.068359375	-42554.9453125	14869.6650390625	214801.1875	-6700.53173828125	-101867.328125	-29448.30078125	28772.064453125	49554.86328125	33641.05859375	91657.4921875	33521.70703125	-35687.83203125	45519.62890625	62141.50390625	-222363.234375	53512.9453125	41793.11328125	21516.833984375	35506.0703125	29627.287109375	-160168.890625	40890.3984375	-26036.587890625	92943.921875
90	120	29636.23828125	50925.9765625	27618.9921875	49611.453125	-95424.015625	223526.890625	-211049.1875	31192.171875	64437.109375	285515.6875	-55764.375	-410660.1875	14025.28515625	392572.25	29531.658203125	81380.109375	25102.23828125	52515.16796875	100291.9453125	325.9772033691406	63552.62109375	132175.515625	192453.921875	173806.953125	-40879.44921875	328257.90625	-12101.6806640625	8656.947265625	-126985.15625	-10298.3046875	-41285.96484375	12016.3955078125	42963.671875	125420.0546875	21241.123046875	137861.6875	144001.890625	122752.1640625	-3512.93212890625	-49494.71484375	-171546.234375	-12499.7646484375	52483.25	105360.3046875	-103153.390625	8890.0146484375	26739.9921875	179386.765625	65470.22265625	15031.904296875	22880.216796875	131764.359375	19159.126953125	45585.7890625	45930.52734375	93390.78125	417277.25	40204.83984375	86869.0078125	15166.166015625	36493.34765625	36457.37890625	5151.74267578125	3671.258544921875	102890.984375	45100.46875	56957.0078125	-198984.734375	45160.4765625	-43297.41796875	-96478.9609375	134743.625	26399.017578125	-11677.1259765625	-60197.7421875	19502.154296875	-71896.3828125	33228.67578125	328089.65625	-4313.72216796875	-114207.53125	-57955.49609375	50414.921875	92580.390625	55642.9765625	138685.265625	55786.765625	-78057.78125	76357.265625	99147.7265625	-321119.96875	81557.703125	68040.1484375	36095.08203125	61049.7890625	44617.08984375	-249907.109375	84082.5	-78850.1875	128710.4921875
120	150	39119.65625	64070.16015625	36142.88671875	76371.5	-132993.21875	288828.09375	-258965.796875	28688.498046875	86327.6953125	371510.0625	-77770.578125	-514870.9375	20644.31640625	308387.3125	35408.77734375	105993.609375	33129.97265625	61675.171875	161039.5	-35064.6796875	127447.359375	206319.5	209540.90625	299902.65625	-64646.87109375	500215.03125	-13093.0859375	10360.0888671875	-162045.984375	-8847.94140625	-59090.515625	15637.224609375	58790.84765625	176953.578125	33121.26953125	188293.234375	159750.890625	153393.5	-6087.51171875	-65778.2109375	-204227.015625	-15220.1796875	69129.734375	144433.03125	-121935.7734375	18875.5234375	59455.05078125	223371.40625	88981.1015625	10631.5625	38248.75390625	154034.28125	24485.984375	36728.94921875	63551.6796875	111899.765625	545375.4375	53550.9765625	103876.296875	27406.576171875	54593.88671875	48812.62890625	15031.291015625	34941.65234375	95468.09375	39517.57421875	70117.9921875	-282237.03125	67662.8515625	-66373.3828125	-141029.15625	175553.046875	32421.646484375	-20998.42578125	-81635.59375	31730.814453125	-75619.1953125	31298.103515625	382559.6875	-1261.848876953125	-119246.8984375	-65717.34375	79768.5546875	114805.1875	78685.84375	183259.3125	70585.71875	-77228.9765625	102937.1796875	138725.78125	-416250.375	110904.765625	91027.2734375	56002.3828125	84460.7265625	61090.1640625	-305787.375	127797.671875	-122596.984375	165320.921875
150	180	40711.91796875	63908.52734375	41025.76171875	80464.5390625	-128563.359375	296580.53125	-278602.5	19803.4296875	91534.6484375	368039.875	-80524.2734375	-596771.6875	22199.55078125	224657.875	36670.58984375	112577.9375	36656.83984375	75521.1484375	190532.09375	-41769.37890625	131028.96875	200861.53125	246435.015625	276302.0	-58995.03125	510258.3125	-14626.79296875	10905.1875	-169736.609375	-3783.738037109375	-67619.5	17425.16796875	60370.2734375	189635.6875	35716.015625	199669.09375	166246.78125	167625.3125	-537.867919921875	-76437.3984375	-169568.671875	-12834.0595703125	77137.625	152678.953125	-134367.375	26258.2890625	99093.7421875	250152.734375	91571.9453125	16040.0703125	40658.078125	157741.546875	29654.9609375	33566.46484375	65883.6875	98840.671875	556765.625	59141.6328125	109117.1796875	31862.013671875	59945.1171875	50797.78515625	9460.43359375	50270.86328125	109516.6953125	50680.65625	83704.578125	-293559.0625	74580.9453125	-79476.8203125	-168485.21875	189648.328125	35483.55078125	-26343.359375	-107616.5078125	33204.22265625	-71138.0078125	28420.908203125	392266.25	5174.08447265625	-114088.375	-75967.6953125	77682.8046875	129958.765625	89739.3984375	204759.109375	74301.78125	-74340.6640625	117437.796875	159795.390625	-407499.5	120116.7109375	98042.796875	63982.828125	95933.7890625	68162.578125	-337407.25	144265.34375	-166145.015625	173316.296875
180	240	40630.6484375	69063.7109375	39755.640625	85727.8125	-111730.3828125	292129.34375	-257702.234375	7080.67138671875	103949.21875	351940.9375	-85148.0546875	-557403.625	32389.72265625	163598.84375	39606.328125	110953.1875	37011.671875	73276.9453125	165752.78125	-24517.87109375	114515.5625	202653.3125	227285.078125	263857.90625	-61821.93359375	489947.9375	-15086.5205078125	10649.06640625	-190751.75	-486.1910705566406	-66039.8984375	18668.30859375	60237.15234375	189547.328125	38241.59765625	209280.078125	153638.734375	165393.828125	-1951.541259765625	-78206.53125	-202144.75	-18377.208984375	85856.296875	166185.734375	-150627.046875	29576.974609375	92423.4375	246680.09375	92088.0625	16066.908203125	41267.74609375	165292.5625	28244.134765625	36238.1796875	64556.7421875	112208.9296875	545564.0625	56217.2890625	106211.6796875	30505.791015625	59185.22265625	49511.859375	22652.2265625	62849.78125	117102.546875	38137.1953125	81192.1640625	-295398.59375	69079.53125	-84669.6015625	-181136.296875	186031.515625	36280.234375	-32627.96484375	-113309.0078125	29513.951171875	-70242.3984375	25012.064453125	379787.5	2442.698974609375	-91371.6875	-77842.0703125	69472.671875	133415.609375	87525.3515625	190678.640625	73248.0234375	-97675.578125	113359.9375	146171.078125	-398176.09375	114362.078125	94472.140625	61636.15625	99571.359375	57787.015625	-317478.46875	153238.15625	-211701.375	164905.828125
240	300	40158.98828125	68581.7890625	37570.34765625	92276.6875	-106930.0078125	278930.4375	-256714.125	4837.103515625	100793.3203125	370614.46875	-89642.3515625	-455415.03125	36199.82421875	101826.765625	36998.765625	108432.296875	34732.984375	68057.6796875	175201.640625	-24313.849609375	131333.671875	185092.1875	254330.421875	190737.5	-68864.734375	502722.6875	-12783.0947265625	10753.1865234375	-159020.765625	2097.9365234375	-64178.98828125	18973.08203125	45882.88671875	174080.359375	38152.54296875	178064.875	139228.03125	160919.234375	2026.228271484375	-80488.953125	-201356.546875	-18714.783203125	81750.3984375	161648.140625	-157879.046875	28165.646484375	95594.3359375	235020.0	87559.359375	11982.4609375	47445.30078125	148654.1875	28453.921875	20728.767578125	58190.125	106880.25	504072.3125	53742.9921875	97490.59375	31412.609375	62406.37890625	45774.4609375	33036.76953125	63219.75	86937.3125	32071.53515625	78135.0078125	-264994.375	65573.1796875	-61956.74609375	-184764.0	174768.15625	37304.79296875	-31877.404296875	-77004.6015625	31308.83984375	-65922.3359375	16580.41015625	374293.75	6339.09521484375	-32438.166015625	-69112.3203125	66937.953125	132716.6875	85894.90625	178064.859375	73248.0234375	-70849.5625	110217.765625	129870.828125	-353165.3125	107565.5	91351.796875	60216.08203125	96651.265625	54771.65234375	-320226.75	148495.640625	-207613.734375	154689.421875
300	360	39305.37890625	61572.73828125	36029.234375	83304.03125	-79558.7578125	239970.453125	-197556.171875	7794.32666015625	76657.921875	401504.375	-95268.4609375	-426898.03125	22527.3828125	177066.9375	35957.80859375	106260.890625	33056.109375	74774.0859375	163753.15625	-42633.73828125	128566.6171875	159559.3125	256761.21875	195057.65625	-52543.37109375	453999.1875	-14491.89453125	10745.1533203125	-186181.453125	2805.673095703125	-61357.30859375	19216.103515625	41905.90625	169358.546875	35035.6015625	159995.0625	125758.9140625	150635.546875	518.7772827148438	-76393.59375	-182388.09375	-17825.826171875	77773.1640625	147622.578125	-151890.515625	26901.46875	94521.1640625	215859.765625	79908.7265625	15058.1455078125	42897.8359375	143338.203125	25507.271484375	23747.189453125	54445.75390625	89958.3125	461213.09375	47044.828125	90636.625	29351.64453125	58328.4375	40611.89453125	31176.041015625	61265.8671875	82835.796875	31119.576171875	66739.5234375	-248745.90625	65346.5703125	-53853.76953125	-177396.203125	159663.828125	32651.359375	-29840.205078125	-73720.890625	31907.236328125	-62657.875	17084.068359375	337050.125	3312.604248046875	-18746.078125	-63824.609375	61778.8359375	122547.515625	78028.2734375	149349.3125	67598.09375	-75683.2265625	101419.921875	131009.9375	-307951.90625	99821.53125	84596.859375	55064.20703125	98709.109375	49593.796875	-285455.8125	137479.515625	-224419.59375	155208.296875
360	480	36239.54296875	58518.73046875	31959.4296875	79172.0390625	-78752.9765625	219254.21875	-174124.421875	9499.3037109375	72273.171875	364668.5625	-84542.21875	-387592.0625	27673.876953125	176449.3125	34367.55859375	93179.1171875	30660.119140625	66201.078125	139706.4375	-21184.728515625	120589.1875	130680.953125	262283.625	173468.09375	-55443.35546875	406160.15625	-13676.146484375	10737.7431640625	-180719.359375	5994.96435546875	-54089.05078125	18290.494140625	26486.5546875	150611.625	29365.9765625	151110.78125	103358.296875	130708.390625	2126.56396484375	-68025.578125	-138100.03125	-15957.5947265625	82041.6015625	121800.9921875	-162275.390625	22892.1796875	89888.6953125	172249.65625	72182.34375	7061.73046875	33590.38671875	118729.0703125	27160.720703125	25606.8203125	45504.35546875	82102.3203125	444046.75	39925.16796875	77608.9453125	23903.333984375	53099.82421875	31776.5546875	40218.453125	63001.6171875	50296.81640625	23529.37109375	63097.1015625	-218330.890625	51846.4296875	-56312.1484375	-159898.375	139334.015625	30694.455078125	-28710.318359375	-86015.2265625	25547.85546875	-48738.4921875	15113.8271484375	294184.28125	2774.928466796875	827.7108764648438	-46355.0390625	51841.45703125	109397.21875	69365.4453125	126347.0234375	55153.24609375	-67880.4609375	90634.71875	102389.484375	-291330.84375	86868.09375	73079.734375	49105.6875	87223.328125	37950.23828125	-253096.515625	122352.25	-213711.53125	127280.75
480	600	34945.54296875	53852.64453125	27279.033203125	69598.28125	-64971.2578125	184916.734375	-129094.828125	13131.8583984375	50669.4375	338971.59375	-82452.9921875	-311233.84375	26348.169921875	174575.8125	32520.248046875	82929.0390625	26372.009765625	61374.98046875	116703.125	-10916.912109375	103668.484375	102494.8203125	252306.140625	105346.671875	-44155.234375	329504.375	-14306.9794921875	10917.3798828125	-187332.296875	7870.212890625	-44464.64453125	17503.740234375	11609.5234375	122677.0078125	26974.76171875	119662.6015625	87658.7578125	112042.359375	1196.3018798828125	-61325.5859375	-114448.078125	-15248.63671875	74367.1875	98409.21875	-157056.859375	15864.1796875	74609.09375	146946.078125	57594.62109375	932.888427734375	23895.9375	98898.90625	24283.431640625	4937.9716796875	29797.638671875	65164.57421875	370572.625	32969.578125	61532.0625	17738.533203125	46452.3046875	20447.86328125	44963.33984375	48988.4296875	25586.1015625	17350.119140625	50887.13671875	-178242.34375	41128.7578125	-51865.6875	-145225.1875	114901.9921875	25356.537109375	-28096.7421875	-85458.5	20868.14453125	-39305.7734375	14040.85546875	244414.71875	2430.971435546875	17531.029296875	-40983.23046875	34192.5546875	92849.265625	53752.3046875	96109.3671875	42953.86328125	-51255.72265625	74995.6953125	85610.6796875	-235831.21875	70712.421875	59567.6015625	38528.19140625	75967.828125	29433.859375	-203264.015625	101709.046875	-197828.84375	111559.1875
600	900	33207.7109375	46071.07421875	21000.841796875	50575.015625	-67580.90625	159681.6875	-93054.734375	12791.5908203125	29416.1171875	287839.21875	-70926.4453125	-305964.75	24033.814453125	159969.109375	30720.53125	67827.875	20830.986328125	57246.6171875	80224.6171875	2445.077880859375	84514.09375	57987.93359375	233287.421875	98194.8125	-32640.259765625	227092.53125	-14398.3759765625	11274.1396484375	-175553.75	13992.8154296875	-31872.927734375	16237.8515625	3688.75830078125	77178.78125	22519.96875	78335.8046875	62810.40234375	85670.234375	314.6241455078125	-50573.3046875	-85287.9921875	-13151.6181640625	68395.640625	69534.0390625	-150327.046875	10524.0849609375	66150.453125	99201.75	40170.6640625	-9037.1669921875	12799.2314453125	72537.2109375	23467.287109375	-6940.04736328125	14313.44140625	50075.78515625	283398.6875	21556.6484375	43663.71484375	9483.22265625	31617.70703125	9407.525390625	71090.171875	38093.57421875	18429.791015625	12645.45703125	34521.296875	-115169.6171875	33538.55859375	-29887.208984375	-118128.125	79992.265625	17091.2421875	-21872.029296875	-77383.109375	15992.4873046875	-24758.564453125	12131.6748046875	176793.71875	-1270.0516357421875	48814.34375	-15432.8095703125	23466.193359375	74669.5390625	39053.43359375	60066.171875	29572.388671875	-39457.2890625	51723.12109375	60146.4921875	-167829.421875	50507.84375	43113.9765625	27243.123046875	63591.91015625	16674.529296875	-137472.671875	76496.2109375	-166431.625	74117.84375
900	1200	31532.001953125	39900.84765625	15906.31640625	37950.23046875	-71509.7734375	130101.890625	-55137.046875	12691.9814453125	13586.171875	275863.5	-62706.0	-294829.6875	17990.34375	185150.984375	28167.810546875	54654.390625	16533.634765625	47850.375	66630.0703125	-6767.810546875	87286.6171875	45774.99609375	186700.75	88112.96875	-23573.59375	147142.421875	-15921.71484375	11904.537109375	-145625.796875	15830.060546875	-23997.41015625	15985.8203125	-5090.71923828125	71063.078125	21341.146484375	57926.7578125	49554.21875	65213.1796875	-978.6708374023438	-41696.3515625	-73863.90625	-11552.8095703125	62023.17578125	51735.04296875	-162565.125	5724.216796875	49264.8984375	66173.5390625	29237.123046875	-6117.62451171875	10376.6201171875	55075.2734375	22599.783203125	-14670.9833984375	3339.435302734375	38249.3984375	228436.671875	13001.5810546875	29359.16796875	5846.20263671875	22503.66796875	2615.215087890625	79825.4375	27934.1328125	16257.587890625	4587.97412109375	23788.533203125	-90951.6640625	28506.474609375	-20939.15234375	-94248.3359375	58276.42578125	13838.1572265625	-18835.625	-56438.06640625	15431.74609375	-22015.306640625	8043.921875	162571.578125	-1076.6392822265625	43259.9375	-812.31591796875	14516.8828125	62383.40625	30131.560546875	40683.48828125	22833.50390625	-25920.630859375	37564.4609375	43760.74609375	-126303.7421875	37528.078125	32220.515625	19957.595703125	52046.3359375	10046.310546875	-96245.0859375	54111.7109375	-129865.2109375	60599.50390625
1200	1500	31063.8984375	37251.78125	13064.806640625	28105.958984375	-73317.8359375	122613.921875	-56995.8984375	12207.1064453125	6244.28955078125	265917.28125	-56977.01953125	-278188.5	18166.140625	234752.21875	27372.2578125	49284.85546875	14327.2294921875	42604.50390625	47704.78515625	-30.091781616210938	80913.515625	36204.19921875	174054.40625	65609.875	-21614.86328125	143199.859375	-17436.62109375	12546.859375	-149745.78125	15963.1669921875	-20777.5078125	15932.11328125	-10195.6513671875	56640.70703125	20051.8203125	40516.171875	42365.08984375	58056.95703125	-1596.901123046875	-37892.29296875	-61959.90625	-8791.740234375	61004.23046875	39415.25390625	-169663.046875	2244.97119140625	39933.6953125	49776.23046875	23974.115234375	-8432.92578125	4099.42041015625	48399.55078125	20565.046875	-19399.10546875	-733.4375610351562	30950.482421875	206087.140625	11017.5439453125	21772.48046875	4301.74658203125	17981.619140625	-1356.0460205078125	86460.4296875	21409.068359375	20000.25390625	-193.44932556152344	17981.859375	-73032.828125	26469.626953125	-11596.3408203125	-82270.9375	46206.86328125	11175.8564453125	-16105.1796875	-61976.6015625	14161.8447265625	-16095.841796875	10505.0830078125	149613.078125	-1756.751953125	39795.078125	4298.0888671875	10530.2333984375	53071.99609375	23911.486328125	33409.4921875	19602.0546875	-20293.103515625	30966.59765625	39989.98828125	-107046.6875	33085.2109375	26968.591796875	16772.25	47339.35546875	6147.2421875	-76188.8984375	41182.61328125	-112799.3515625	47856.80078125
1500	1800	30384.810546875	34914.09765625	11747.7802734375	23330.439453125	-72302.7890625	103526.3046875	-28795.19140625	10217.7421875	3997.961669921875	225958.59375	-54310.93359375	-286865.21875	20910.701171875	200173.59375	26257.083984375	44719.4140625	12369.76171875	35293.17578125	44541.07421875	-2987.355712890625	73931.203125	34870.046875	152530.703125	60183.77734375	-22651.986328125	158478.640625	-18627.373046875	13262.123046875	-144601.578125	15402.7783203125	-17564.955078125	15705.2099609375	-12815.517578125	49280.265625	20577.736328125	35631.35546875	39483.73828125	50906.546875	-1999.08544921875	-34500.953125	-50303.44140625	-8747.4521484375	61821.73828125	32411.40625	-175610.234375	1861.5865478515625	34296.4765625	40035.9921875	21277.177734375	-10477.4912109375	5085.13623046875	40498.03125	18906.0390625	-17799.75390625	-5242.130859375	22590.962890625	188142.34375	6878.96875	16475.05078125	4999.939453125	14084.056640625	-2762.241943359375	99694.4453125	13002.3583984375	30934.15234375	-9.893421173095703	12754.587890625	-60950.546875	24830.44140625	-9050.85546875	-73537.171875	36980.08203125	11235.6142578125	-14146.8046875	-56541.5	13764.9130859375	-15309.5234375	9537.6376953125	145711.171875	-2185.62744140625	38230.45703125	7226.49169921875	8667.8623046875	48414.38671875	21971.82421875	30374.5859375	18557.37890625	-20104.080078125	25963.666015625	35163.16796875	-91195.34375	28079.001953125	23499.333984375	14459.326171875	44129.05078125	5362.03955078125	-59280.51171875	32042.4140625	-90208.03125	42063.20703125
1800	2100	29584.21484375	32601.37890625	9901.3544921875	16405.716796875	-78216.875	106535.1640625	-42053.1484375	7416.64794921875	3748.927978515625	186836.953125	-49511.828125	-268227.3125	20526.02734375	180146.25	24994.22265625	39213.4765625	11310.1630859375	30441.802734375	37133.80078125	9580.904296875	58278.33203125	29928.69921875	121579.8125	23684.453125	-18004.80078125	112666.6640625	-18660.029296875	12737.6591796875	-136892.765625	15115.8046875	-11236.3837890625	15703.2314453125	-16926.63671875	38392.3515625	19918.990234375	25128.123046875	36953.2265625	43147.5859375	-1083.1229248046875	-30864.275390625	-48654.75390625	-7819.32421875	55812.13671875	26374.203125	-162744.0625	2595.553466796875	29841.306640625	26914.517578125	16431.66015625	-9689.1396484375	51.27919387817383	33548.94140625	19302.107421875	-25416.21484375	-8463.4833984375	24131.1484375	168853.640625	6130.8564453125	11636.0732421875	1094.5748291015625	7918.0712890625	-5238.439453125	94769.0	9926.0576171875	32230.3359375	-283.3235778808594	10142.033203125	-49447.46875	24662.521484375	-2712.739501953125	-65072.55859375	32371.603515625	9891.8408203125	-14687.7783203125	-44518.5703125	14726.37109375	-15512.763671875	6368.40966796875	125552.2578125	-155.34271240234375	33906.06640625	12985.4287109375	8494.5751953125	48543.54296875	16532.134765625	24548.474609375	18672.6484375	-7164.71435546875	16211.4072265625	23735.001953125	-78006.1640625	24631.546875	17984.7421875	11147.1435546875	39450.078125	5679.126953125	-40275.2265625	26046.328125	-75506.7109375	30888.876953125
2100	2400	28490.703125	30358.966796875	8470.1728515625	10759.2705078125	-81231.1484375	100029.3984375	-40348.33984375	6289.64501953125	676.1735229492188	158678.984375	-45219.6171875	-312361.84375	19484.8046875	192623.8125	23769.505859375	34759.125	9962.4228515625	27696.099609375	33977.1484375	14804.8515625	53742.375	30110.0625	98772.1171875	43641.484375	-16975.166015625	92352.375	-18371.4296875	13044.5107421875	-123614.75	14887.1259765625	-7440.3525390625	14991.8896484375	-17873.1171875	31893.7109375	19848.501953125	15328.5771484375	30733.275390625	39728.94140625	-311.4637145996094	-28703.677734375	-45220.80078125	-7514.89501953125	53977.51953125	20374.548828125	-163050.828125	3580.48876953125	24925.767578125	8575.4130859375	15693.869140625	-7188.24072265625	-1014.4757690429688	27627.748046875	19993.787109375	-23838.033203125	-11108.671875	22370.267578125	155829.875	4687.84375	7400.9853515625	-1107.8438720703125	3606.04443359375	-6774.6435546875	93761.7734375	2370.384765625	33357.6484375	2321.786865234375	1566.8477783203125	-40631.73828125	22305.400390625	5128.3125	-59853.91796875	26012.546875	9698.32421875	-13609.9326171875	-41171.65234375	12972.7216796875	-12849.8134765625	6492.00439453125	116131.6953125	1155.446533203125	27571.361328125	24960.2578125	8288.5703125	45316.32421875	14002.7578125	22401.41015625	15792.181640625	-4987.888671875	11717.6025390625	19933.078125	-66661.234375	22026.185546875	14727.1494140625	7182.00830078125	36661.98046875	4404.95263671875	-24644.55078125	20931.51171875	-56379.69140625	18243.38671875
2400	2700	27046.228515625	26941.3046875	7733.9345703125	10426.798828125	-66759.03125	84797.609375	-28947.986328125	7658.82275390625	-5297.33251953125	156625.078125	-41481.44140625	-287056.28125	18648.138671875	175536.703125	22346.271484375	30945.716796875	9173.990234375	22666.517578125	25197.27734375	10639.8486328125	50213.63671875	35751.24609375	72182.9609375	35451.59375	-18696.537109375	88903.9609375	-18266.408203125	12687.8662109375	-115695.6171875	12428.578125	-5385.47412109375	15066.31640625	-19529.615234375	32978.3984375	20301.232421875	8467.9951171875	26190.38671875	34326.01171875	-274.209228515625	-25815.857421875	-38035.81640625	-6594.27978515625	47496.98828125	20423.54296875	-160927.3125	3236.47802734375	24457.83203125	10690.2470703125	14090.3466796875	-1834.8997802734375	-2243.116455078125	27693.353515625	19568.607421875	-28877.66015625	-12673.1171875	21421.779296875	141819.046875	3385.77783203125	5157.8525390625	-915.89404296875	5953.6435546875	-6206.216796875	94588.0703125	2813.750244140625	23699.025390625	1415.395263671875	4597.76220703125	-34739.90625	21594.787109375	10833.6962890625	-46692.578125	23265.80859375	9731.822265625	-13791.6455078125	-37812.8828125	13857.9580078125	-15221.751953125	3015.390625	118899.3828125	3201.279541015625	16465.953125	22035.630859375	6149.86962890625	43333.35546875	12916.69140625	15840.611328125	13965.93359375	2073.19775390625	11607.48828125	14971.0185546875	-57468.30078125	19715.236328125	12175.2607421875	6430.09912109375	31663.23046875	4093.849853515625	-14682.8515625	17232.623046875	-43459.80078125	21075.84375
