frame_start	frame_end	Left-Cerebral-White-Matter	Left-Cerebellum-White-Matter	Left-Cerebellum-Cortex	Left-Thalamus	Left-Caudate	Left-Putamen	Left-Pallidum	Brain-Stem	Left-Hippocampus	Left-Amygdala	CSF	Left-Accumbens-area	Left-VentralDC	Left-choroid-plexus	Right-Cerebral-White-Matter	Right-Cerebellum-White-Matter	Right-Cerebellum-Cortex	Right-Thalamus	Right-Caudate	Right-Putamen	Right-Pallidum	Right-Hippocampus	Right-Amygdala	Right-Accumbens-area	Right-VentralDC	Right-choroid-plexus	AirCavity	Skull	Vermis	Pons	CSF-ExtraCerebral	Head-ExtraCerebral	ctx-lh-bankssts	ctx-lh-caudalanteriorcingulate	ctx-lh-caudalmiddlefrontal	ctx-lh-cuneus	ctx-lh-entorhinal	ctx-lh-fusiform	ctx-lh-inferiorparietal	ctx-lh-inferiortemporal	ctx-lh-isthmuscingulate	ctx-lh-lateraloccipital	ctx-lh-lateralorbitofrontal	ctx-lh-lingual	ctx-lh-medialorbitofrontal	ctx-lh-middletemporal	ctx-lh-parahippocampal	ctx-lh-paracentral	ctx-lh-parsopercularis	ctx-lh-parsorbitalis	ctx-lh-parstriangularis	ctx-lh-pericalcarine	ctx-lh-postcentral	ctx-lh-posteriorcingulate	ctx-lh-precentral	ctx-lh-precuneus	ctx-lh-rostralanteriorcingulate	ctx-lh-rostralmiddlefrontal	ctx-lh-superiorfrontal	ctx-lh-superiorparietal	ctx-lh-superiortemporal	ctx-lh-supramarginal	ctx-lh-frontalpole	ctx-lh-temporalpole	ctx-lh-transversetemporal	ctx-lh-insula	ctx-rh-bankssts	ctx-rh-caudalanteriorcingulate	ctx-rh-caudalmiddlefrontal	ctx-rh-cuneus	ctx-rh-entorhinal	ctx-rh-fusiform	ctx-rh-inferiorparietal	ctx-rh-inferiortemporal	ctx-rh-isthmuscingulate	ctx-rh-lateraloccipital	ctx-rh-lateralorbitofrontal	ctx-rh-lingual	ctx-rh-medialorbitofrontal	ctx-rh-middletemporal	ctx-rh-parahippocampal	ctx-rh-paracentral	ctx-rh-parsopercularis	ctx-rh-parsorbitalis	ctx-rh-parstriangularis	ctx-rh-pericalcarine	ctx-rh-postcentral	ctx-rh-posteriorcingulate	ctx-rh-precentral	ctx-rh-precuneus	ctx-rh-rostralanteriorcingulate	ctx-rh-rostralmiddlefrontal	ctx-rh-superiorfrontal	ctx-rh-superiorparietal	ctx-rh-superiortemporal	ctx-rh-supramarginal	ctx-rh-frontalpole	ctx-rh-temporalpole	ctx-rh-transversetemporal	ctx-rh-insula
0	30	41.563934326171875	38.02812957763672	28.08086395263672	89.55158233642578	87.0451889038086	71.47288513183594	181.67208862304688	78.16376495361328	38.48645782470703	181.8612060546875	7.318183898925781	-85.71343231201172	55.66059494018555	-18.12546157836914	47.184852600097656	26.766845703125	53.40092468261719	83.32028198242188	129.44363403320312	66.2837142944336	138.26182556152344	5.936310291290283	80.4423828125	-66.1883316040039	162.35894775390625	83.9919662475586	15.197449684143066	51.706050872802734	-21.604007720947266	33.160377502441406	37.47103500366211	40.81346130371094	-6.253066062927246	35.66099548339844	99.24848937988281	7.521488189697266	140.1594696044922	80.54817962646484	45.7259407043457	48.19350051879883	106.2748794555664	34.80735778808594	72.77215576171875	121.7325439453125	208.28883361816406	-3.037425994873047	90.662353515625	81.29305267333984	42.84934997558594	48.38337326049805	119.55452728271484	215.12571716308594	143.0613555908203	8.757462501525879	54.7698860168457	15.944197654724121	-8.038098335266113	91.09840393066406	57.7841911315918	66.85516357421875	138.14398193359375	39.203861236572266	-1.7296744585037231	207.7608184814453	302.53643798828125	194.49530029296875	85.06051635742188	160.7206573486328	-36.856693267822266	96.4761962890625	116.01947784423828	73.22420501708984	-14.014609336853027	13.42574405670166	110.27408599853516	47.44580078125	21.715660095214844	53.88893508911133	58.51335906982422	99.83052825927734	144.13145446777344	14.051885604858398	-19.042978286743164	55.753997802734375	54.008216857910156	66.30774688720703	15.578221321105957	44.8559684753418	55.18408203125	38.49789810180664	-8.922600746154785	34.984718322753906	53.17441177368164	5.647570610046387	113.7886734008789	68.35697174072266	96.09789276123047	-0.022992514073848724	450.2423095703125	70.89190673828125
30	60	1112.1158447265625	2172.534423828125	4173.263671875	5384.4658203125	5976.72509765625	6130.23291015625	2605.978759765625	2855.13525390625	4815.919921875	4870.10009765625	674.434814453125	4365.73291015625	3697.88330078125	4465.83251953125	1244.986572265625	2090.490966796875	4154.888671875	4379.970703125	6170.921875	6325.60986328125	2279.898193359375	3735.925048828125	4073.867919921875	5020.38818359375	3641.0126953125	8430.244140625	333.2507629394531	1196.39990234375	3044.97265625	3862.869384765625	1800.97900390625	921.3580322265625	5154.63232421875	6902.38916015625	7569.62353515625	11771.333984375	6293.62255859375	5351.3857421875	6211.052734375	5674.26904296875	7109.18994140625	7074.9970703125	7366.89306640625	7752.89599609375	7278.470703125	5934.58642578125	6069.41796875	5504.5927734375	7627.34228515625	9230.5947265625	7906.017578125	11969.4072265625	6797.869140625	9881.0185546875	6852.56396484375	7510.84716796875	6143.83056640625	7312.7353515625	6688.525390625	6770.7685546875	6013.59765625	6929.2060546875	9456.052734375	3894.43798828125	11079.9609375	6545.8154296875	6932.07958984375	8878.76953125	6671.0791015625	9797.2509765625	9424.4853515625	4318.85546875	5411.21337890625	5851.7275390625	6250.98974609375	6248.47998046875	6693.16357421875	7816.05859375	5607.15576171875	4960.3359375	5122.89892578125	6898.4365234375	6771.169921875	7467.61083984375	6351.09228515625	7973.205078125	6217.77587890625	5952.8837890625	6470.84228515625	5900.1552734375	7071.02978515625	6351.64404296875	6492.72607421875	5919.4677734375	5008.46484375	5933.61279296875	9796.2958984375	4167.71435546875	14437.328125	6755.58935546875
60	90	3779.41015625	7845.8466796875	14742.08203125	15864.0859375	20286.267578125	21450.177734375	5781.20849609375	9004.8310546875	13194.994140625	14346.9794921875	1866.8055419921875	25188.068359375	12598.3896484375	22016.80859375	4106.939453125	7105.8408203125	14299.376953125	16785.263671875	19738.1796875	20038.9765625	9902.9931640625	11816.20703125	12990.1279296875	9163.201171875	12306.7900390625	21642.865234375	943.4060668945312	3393.55322265625	14791.0498046875	11716.986328125	4148.228515625	2700.102783203125	18167.369140625	22480.890625	24274.240234375	34016.90234375	16525.966796875	18130.27734375	21397.638671875	19122.423828125	24842.453125	23440.650390625	22799.40625	22996.517578125	20136.74609375	17581.29296875	14776.1455078125	22190.1328125	21465.51171875	29579.443359375	23867.1875	40967.73828125	23777.53515625	23521.90625	23992.7421875	23266.76171875	19507.564453125	24553.6171875	22489.8125	22063.43359375	18174.3515625	22835.419921875	30587.015625	11983.3720703125	33109.1328125	17657.890625	21195.5234375	17522.259765625	23962.68359375	33535.015625	19750.3046875	15036.27734375	20260.255859375	17669.451171875	20710.322265625	22929.783203125	22825.794921875	23066.119140625	18710.95703125	17546.40625	15956.55078125	20136.79296875	22490.443359375	26474.83984375	22678.5234375	29133.212890625	19951.046875	20401.38671875	22130.5859375	21446.943359375	17722.40234375	22528.728515625	21742.822265625	20501.564453125	16372.90234375	21135.869140625	25246.203125	14155.9287109375	29500.03515625	16984.70703125
90	120	7240.98583984375	14222.373046875	27149.20703125	30150.32421875	33012.05859375	38031.72265625	15949.6357421875	15850.529296875	23274.30078125	24398.099609375	4705.2548828125	29190.57421875	22033.017578125	29611.748046875	7427.3408203125	13795.16015625	26768.80078125	28838.232421875	36512.65625	37852.203125	19539.466796875	20939.98828125	19323.931640625	29249.923828125	21693.685546875	58078.02734375	1307.522705078125	6323.68212890625	26451.642578125	21557.279296875	5201.5029296875	4829.44189453125	35560.89453125	40404.83203125	42772.33984375	61612.43359375	28481.875	34151.19921875	37860.07421875	33650.9609375	42237.640625	43111.546875	40929.9453125	41465.76953125	38033.01953125	34001.8203125	24281.955078125	43646.8125	41235.46484375	50498.98828125	43381.09765625	71891.1640625	44053.59765625	39268.4921875	44050.6171875	43308.25	31623.564453125	44814.80859375	41427.7734375	42238.78515625	31967.611328125	40623.08984375	52537.34765625	22868.375	59673.84375	30342.58203125	34089.4375	34775.46484375	42025.01953125	54731.21484375	32453.0625	26985.384765625	38186.70703125	33073.51171875	37152.15234375	42149.09375	43081.86328125	41598.79296875	35072.08984375	31160.90625	21891.84375	38211.7734375	38846.11328125	48263.97265625	41765.328125	53736.42578125	39027.765625	39944.9140625	39986.80859375	41018.40234375	33026.64453125	41839.26953125	39473.2265625	39996.13671875	29150.12109375	39290.10546875	49524.5390625	21194.73828125	49561.9765625	28003.9140625
120	150	9382.9111328125	19031.5078125	37504.28125	41136.66015625	48373.734375	56477.515625	17125.9375	20771.607421875	29363.421875	28151.79296875	4395.95654296875	44103.7421875	31338.970703125	41341.4453125	9929.86328125	18617.431640625	36403.7734375	41956.94921875	54016.0703125	51824.296875	23974.716796875	26888.029296875	29369.3125	39243.23046875	28569.138671875	75664.671875	1525.462158203125	8025.77880859375	34432.4453125	27772.556640625	4813.70556640625	6443.953125	49954.99609375	53025.953125	58272.1328125	79742.296875	36849.77734375	46731.55859375	53563.82421875	49345.984375	57843.41796875	59600.921875	56490.76171875	57917.9453125	51719.1015625	46769.04296875	33663.6328125	57207.76171875	55348.6015625	70320.03125	60829.1875	99115.84375	62189.52734375	56761.28125	60485.55859375	62394.21875	44436.08984375	61576.6875	57444.62890625	60762.51171875	42343.8203125	56395.00390625	68346.265625	33070.9453125	70578.515625	38718.26171875	47432.68359375	45299.6328125	61108.19921875	73217.546875	41194.4296875	37397.609375	54173.45703125	45328.25390625	48966.47265625	60786.84765625	55573.6328125	58412.89453125	50153.24609375	43728.09375	34918.40234375	52285.16015625	55134.49609375	61531.71484375	56495.4609375	74409.875	55092.30078125	52523.41015625	55681.59765625	56492.6640625	43992.90234375	58979.22265625	55700.90234375	55639.6171875	41597.84375	54108.77734375	70342.3046875	31169.556640625	64098.25	36726.93359375
150	180	10379.2265625	21268.08203125	42064.77734375	45325.5546875	51056.7265625	60475.31640625	20712.9609375	24127.833984375	33465.06640625	30293.068359375	5179.95556640625	46742.13671875	30642.833984375	51418.5390625	10757.4580078125	20168.078125	39951.05859375	44570.12109375	58246.17578125	58881.1328125	25315.8359375	30374.103515625	29285.37109375	41862.78515625	32769.6796875	74629.28125	1354.847412109375	8529.1845703125	38540.6171875	30078.32421875	2895.91162109375	6969.24560546875	54919.0078125	50128.45703125	65454.3515625	87866.6953125	41112.9140625	50929.2265625	60366.1953125	54555.0703125	60542.96484375	66808.703125	61924.49609375	63547.25	55224.19140625	52968.78515625	32951.484375	66233.96875	62495.0078125	74601.9140625	65479.80078125	106943.2578125	72835.1953125	59425.5703125	66631.5	67846.9375	45281.5390625	68647.9609375	62774.21875	65751.3359375	47870.99609375	62593.75	74452.6171875	34434.890625	78690.734375	42731.328125	55289.70703125	53349.27734375	65253.96484375	78479.875	44074.3046875	41443.265625	60215.046875	51126.53515625	56704.8203125	67293.0	63034.9296875	64803.04296875	54578.6953125	49850.5078125	37636.0	60944.48828125	61318.66015625	66562.7578125	63055.61328125	86049.640625	62030.21875	61210.35546875	61340.859375	64167.28515625	44477.890625	65950.3515625	62108.01953125	65908.75	43865.3125	61481.2421875	71311.953125	27899.7734375	74527.671875	36657.06640625
180	240	10985.5810546875	20836.671875	41990.5546875	44868.63671875	53766.64453125	59499.51171875	25101.4765625	23209.92578125	30874.47265625	31737.130859375	4280.77001953125	45255.0546875	32675.740234375	42284.2890625	10967.775390625	20474.1953125	40193.80078125	45600.19140625	60554.59765625	58638.53125	28080.212890625	29382.6484375	32706.9296875	41014.5625	32479.470703125	55305.53515625	876.8445434570312	8541.76953125	42702.40234375	31228.064453125	1585.57275390625	7118.98095703125	55159.39453125	55776.859375	66879.390625	85964.6640625	37742.89453125	51806.29296875	62162.24609375	53209.5703125	59102.70703125	65647.8671875	62821.51171875	59841.921875	57498.48828125	52827.8515625	34589.9609375	63253.62890625	60342.8515625	73678.8671875	64374.5078125	102799.046875	71880.28125	60870.5546875	67232.5390625	67550.796875	48786.83984375	68376.796875	61869.328125	66326.296875	48450.94921875	62345.26953125	74048.9765625	34867.65234375	73160.7109375	43726.22265625	56823.7265625	47255.515625	66516.421875	76628.921875	43386.9921875	42874.37890625	61040.546875	51480.6796875	57282.5546875	67067.9296875	64032.3203125	63921.79296875	53510.44921875	49102.453125	38585.421875	62641.4296875	59653.22265625	66415.71875	62714.80078125	83377.734375	63658.15234375	60516.86328125	61943.62890625	63312.38671875	43130.41796875	65511.37109375	60707.04296875	66886.875	45268.390625	59372.69921875	72375.9296875	29951.681640625	65280.81640625	36871.1875
240	300	10971.8759765625	21733.365234375	39827.48828125	43666.41015625	51136.6015625	57170.87890625	25753.568359375	22646.16796875	29922.388671875	33643.98046875	2178.404541015625	47894.87890625	32960.25	37368.7109375	11481.6767578125	19893.57421875	38613.39453125	43474.80078125	56082.3515625	56004.41796875	28375.048828125	28934.884765625	30384.9765625	46115.45703125	31617.5	67580.65625	536.8182983398438	8373.744140625	39726.73828125	28386.998046875	742.2528686523438	7182.7841796875	53043.1328125	52603.4375	63599.62890625	75157.953125	39703.46875	48836.9140625	57882.4140625	51430.3046875	51170.71875	60389.91015625	59710.859375	57272.02734375	52141.078125	51311.84765625	34618.98046875	59941.390625	58107.0	68585.3671875	60795.8515625	91095.8515625	66554.734375	60745.4765625	62847.578125	64526.578125	46758.61328125	65047.03515625	58805.70703125	63151.4921875	46675.0	60214.62109375	69777.296875	33998.4453125	64605.21875	42881.66796875	51552.29296875	44964.609375	64240.80078125	72245.921875	40871.03515625	40815.83984375	58308.4609375	49746.92578125	51267.0390625	63767.59765625	57494.3828125	58270.78125	53408.3046875	46961.203125	32558.87109375	56119.4921875	56406.3984375	61543.41015625	59050.05078125	74786.515625	58859.6875	52223.83203125	58555.609375	58529.0625	45293.5390625	61995.890625	57421.39453125	63753.71484375	43221.9609375	57559.37890625	67339.3125	29130.453125	59773.74609375	35976.828125
300	360	11500.2734375	20764.455078125	37575.20703125	41863.78515625	47384.03515625	53249.79296875	24824.29296875	21690.18359375	29594.341796875	28123.791015625	3192.0732421875	43399.83984375	29653.673828125	25249.470703125	11453.955078125	19837.859375	35988.11328125	41948.58203125	53858.01171875	52472.1328125	25227.4765625	27876.888671875	29329.685546875	40296.1953125	29595.80078125	36429.0234375	282.3141174316406	8258.859375	35761.5234375	28057.947265625	343.7656555175781	7157.9248046875	49708.6171875	50158.734375	57284.4296875	72957.859375	36386.5078125	45227.75390625	54396.0390625	47746.2421875	46683.52734375	55495.73828125	55104.2890625	52143.05078125	51872.9921875	47961.27734375	31032.91796875	53770.47265625	52939.40625	61911.625	56698.96875	79798.984375	61123.3984375	54789.09765625	58539.7734375	58313.98828125	40364.296875	59891.1484375	55017.16015625	59761.484375	43363.52734375	54569.91015625	63353.67578125	32711.806640625	60995.65625	40553.7734375	47412.12109375	42908.4921875	56583.48046875	64015.66015625	39035.7421875	38622.125	54660.6015625	47426.25	48119.52734375	57618.01171875	55327.07421875	53946.05859375	49815.5390625	43466.69921875	35608.86328125	56277.1328125	52878.12109375	57705.3203125	53767.3359375	68007.3828125	54552.56640625	48514.44921875	52841.67578125	55707.59765625	39214.6484375	57756.84765625	52949.89453125	58587.6875	41764.625	51361.6875	63181.3125	29175.98046875	53785.6328125	33880.33203125
360	480	11651.22265625	20451.62890625	33408.54296875	37800.28515625	43072.73828125	48233.109375	23302.076171875	21372.341796875	27745.404296875	29954.22265625	2379.18994140625	36622.06640625	27910.173828125	25649.4375	11839.3291015625	18860.787109375	32385.490234375	38705.5703125	46642.0625	48237.3984375	26682.20703125	25478.220703125	29922.587890625	34834.8984375	28154.1875	26869.2734375	6.833319187164307	8131.40869140625	30463.68359375	25796.583984375	-0.8806169033050537	7192.71142578125	43816.6484375	47733.31640625	50318.44921875	61235.625	35347.37890625	42915.5703125	48509.34375	43805.02734375	44115.69140625	48927.33203125	51035.94921875	45216.79296875	45171.4453125	43964.5390625	30520.93359375	51302.23046875	47798.40234375	56933.51953125	51358.89453125	66091.2421875	54358.43359375	45608.76171875	52099.66796875	51465.79296875	39758.48046875	53614.765625	48443.80078125	53614.9765625	39967.61328125	49002.6875	56378.45703125	31804.986328125	54189.51953125	37705.5546875	43586.578125	35213.8359375	50589.36328125	56604.359375	38781.65625	35037.2265625	49165.49609375	43095.18359375	40747.26171875	52051.75	49552.265625	47023.90234375	45742.60546875	39144.88671875	32014.4921875	47943.0859375	45427.22265625	49857.3046875	46825.29296875	56761.40234375	48241.15234375	44130.609375	48126.53515625	47824.0625	40238.6640625	51469.3125	48507.50390625	52430.8828125	37973.84765625	45840.171875	59137.9609375	28349.49609375	45669.0	32218.8125
480	600	12076.7216796875	19708.662109375	29708.677734375	34688.5390625	37183.296875	42735.23046875	22740.03515625	20099.0	24527.396484375	29577.833984375	1231.4537353515625	35085.9375	28075.548828125	19751.33203125	12396.970703125	19037.7890625	28597.35546875	35265.31640625	40812.63671875	40688.79296875	27925.37109375	23119.365234375	29790.740234375	32752.10546875	26516.52734375	15604.287109375	-215.446044921875	8212.1953125	27775.6484375	23914.3671875	-185.26519775390625	7247.68115234375	37962.03125	38598.515625	43771.76953125	53119.58984375	31978.7734375	37490.74609375	43090.21484375	39065.359375	37860.70703125	41630.82421875	42669.1328125	39552.53125	42151.890625	39687.83203125	27098.30859375	42369.796875	40070.625	48332.51953125	44815.48828125	52895.65234375	48874.61328125	42365.4453125	45513.7109375	43684.93359375	37187.5859375	46773.95703125	42329.3125	46043.7421875	36042.109375	43022.3515625	47361.27734375	30354.59765625	42881.85546875	34144.40234375	37467.0625	33980.54296875	45276.42578125	48952.859375	35236.765625	31398.8359375	42894.81640625	38113.046875	38660.03515625	45182.37109375	42353.359375	41262.93359375	40305.3515625	35236.3203125	30373.01171875	42575.32421875	39924.04296875	42258.265625	40590.421875	45320.3984375	42834.26953125	37786.21875	41369.64453125	42038.27734375	30447.7890625	44539.85546875	41925.01171875	45923.66796875	34734.26171875	40484.3125	48750.89453125	28142.939453125	36725.21484375	29189.1640625
600	900	12786.248046875	19131.439453125	24736.3515625	29568.4453125	29844.41796875	35376.796875	24298.53515625	18632.087890625	21870.833984375	27170.103515625	-4.178379058837891	26944.96875	25484.412109375	15764.55859375	12984.3134765625	18208.970703125	23922.5546875	31068.27734375	34314.046875	33177.19921875	25459.00390625	20803.08984375	29036.24609375	30323.0546875	24547.431640625	13957.23046875	-461.55291748046875	8355.5556640625	22935.921875	22028.71484375	-457.1245422363281	7460.69677734375	32431.0	32764.36328125	36199.640625	42744.234375	28469.021484375	32262.919921875	35000.72265625	33043.21875	29183.94921875	34665.65625	35484.703125	32308.2109375	35301.5	33019.87109375	24823.783203125	34150.11328125	33753.8984375	40355.7890625	37658.05859375	41909.625	39445.5234375	32555.31640625	38303.91015625	35423.12109375	31140.140625	38525.57421875	34855.54296875	38371.015625	31450.03125	35101.73828125	39882.64453125	28046.16796875	33911.39453125	30536.845703125	30895.44921875	26156.935546875	35544.44140625	40400.828125	32338.90625	27113.708984375	35315.875	32238.083984375	30353.1640625	37899.46875	35005.28125	33779.73046875	35086.86328125	29254.115234375	28223.14453125	35446.82421875	32467.25	34452.16015625	33293.31640625	35839.41796875	34550.89453125	31932.359375	33807.6875	34369.66015625	26082.5703125	36957.6015625	35323.5078125	38174.109375	29855.3125	33293.91015625	41824.2109375	25318.775390625	33554.9140625	25552.962890625
900	1200	13828.798828125	18756.580078125	20075.4921875	25537.623046875	22738.548828125	27691.20703125	21730.11328125	17188.8671875	18953.083984375	23227.439453125	-817.7904052734375	20185.296875	23101.033203125	9920.3837890625	13535.078125	18096.41015625	19516.017578125	25972.333984375	27777.904296875	26596.39453125	23186.669921875	18387.328125	23720.12890625	23124.662109375	23261.748046875	15499.216796875	-622.2390747070312	8406.90625	18326.306640625	19768.7578125	19.52821159362793	7812.27392578125	27049.71484375	26078.80859375	29243.099609375	35097.7265625	26034.416015625	27637.779296875	28378.228515625	27799.701171875	24937.072265625	27400.177734375	28557.486328125	25836.646484375	28241.158203125	27091.591796875	20936.814453125	28206.970703125	27648.326171875	32118.9921875	29686.390625	32120.90625	32261.822265625	27084.2421875	30709.431640625	28265.076171875	23736.642578125	31323.771484375	28015.36328125	31612.6953125	26073.458984375	28727.83203125	37851.86328125	24315.041015625	29925.55859375	26620.837890625	24592.353515625	23970.5234375	29899.7578125	33179.265625	27756.353515625	22961.90234375	29055.404296875	27367.34375	25733.69921875	30886.40625	29199.626953125	28181.71875	29094.560546875	24648.185546875	22852.203125	28866.40234375	25576.111328125	28598.453125	28560.623046875	28926.5546875	27786.248046875	25928.619140625	27860.11328125	28406.744140625	24384.814453125	30933.224609375	28934.98828125	31138.25	25117.41015625	27058.486328125	33166.18359375	21161.99609375	25237.744140625	22807.498046875
1200	1500	14095.8837890625	17762.416015625	16864.708984375	21086.125	19137.0546875	22148.515625	23427.189453125	15369.6103515625	16054.0205078125	21262.892578125	-577.6013793945312	17345.40625	21303.73046875	11033.1083984375	13758.328125	16952.60546875	16455.841796875	22317.15625	22701.353515625	22134.611328125	23713.93359375	15351.419921875	20265.55859375	18533.521484375	21210.419921875	13280.5234375	-658.6802978515625	8340.001953125	15423.966796875	18020.427734375	167.7340850830078	8083.96826171875	23179.21875	21734.185546875	25501.390625	29730.689453125	22950.552734375	23607.84375	24167.498046875	23856.62109375	21077.275390625	23165.509765625	25534.634765625	22647.34765625	22766.345703125	23259.373046875	18380.125	23342.462890625	24537.017578125	28686.005859375	25267.25	27467.900390625	27253.8359375	21301.83203125	26118.033203125	23858.6328125	20958.1015625	27072.16015625	23968.1015625	27289.525390625	22344.005859375	24813.51171875	31482.29296875	22574.345703125	25511.263671875	23499.005859375	21506.986328125	19746.533203125	25338.29296875	27579.166015625	25664.857421875	20516.517578125	25160.099609375	23624.265625	21600.0546875	26104.748046875	26051.9296875	23731.873046875	25969.767578125	21438.607421875	19510.759765625	24326.78515625	23007.650390625	25710.099609375	24960.744140625	25660.982421875	24206.05859375	24545.576171875	23503.796875	24286.03125	22113.53125	26568.255859375	24817.580078125	26326.794921875	22193.955078125	23604.484375	30428.6875	18143.7109375	19139.61328125	19526.88671875
1500	1800	14037.5029296875	16925.75390625	14203.625	18672.7890625	14735.00390625	18813.392578125	21907.40625	13737.859375	14066.6796875	18498.328125	-854.1948852539062	9550.89453125	18294.4296875	6755.73828125	13789.48828125	16331.2265625	13740.6611328125	18807.3046875	17644.8046875	18582.466796875	20014.9375	13416.1845703125	20404.349609375	13442.8193359375	19150.810546875	12626.98828125	-743.29248046875	8337.4111328125	11918.6845703125	16767.568359375	251.0900421142578	8232.197265625	20390.70703125	17652.701171875	21836.908203125	25878.1953125	19221.322265625	20507.966796875	20771.95703125	20865.26953125	18659.271484375	19210.447265625	22024.0546875	19509.048828125	19350.31640625	19729.228515625	16440.2890625	20420.5	20733.50390625	27243.17578125	22930.087890625	23100.662109375	23789.740234375	18744.62109375	22491.37890625	20159.884765625	19065.087890625	23438.591796875	20277.09765625	23245.15234375	19676.5625	21163.888671875	25976.201171875	20081.3359375	23422.09765625	20065.302734375	18153.60546875	18739.029296875	21725.951171875	25015.33203125	21272.201171875	17438.94921875	21841.99609375	20587.837890625	19485.13671875	22267.060546875	21828.064453125	20169.708984375	23941.455078125	18307.439453125	17522.09375	20774.427734375	20250.1953125	22288.134765625	21044.892578125	22361.927734375	20342.8046875	20637.43359375	20652.57421875	20853.306640625	18173.59765625	22986.626953125	21537.26171875	22624.13671875	19449.240234375	20553.32421875	27156.71875	15294.9873046875	15826.166015625	16889.130859375
1800	2100	13928.5634765625	15601.83984375	12000.919921875	15313.021484375	12045.7548828125	15258.6533203125	20483.10546875	12943.5234375	12198.29296875	15518.5126953125	-640.813232421875	7553.62109375	16326.005859375	7780.05908203125	13410.751953125	15118.6279296875	11758.265625	16308.51953125	15048.9755859375	16463.72265625	18135.341796875	11594.8232421875	16138.35546875	8613.7607421875	17475.291015625	5908.2373046875	-830.1301879882812	8259.0595703125	10395.9990234375	14690.4013671875	616.5200805664062	8332.05859375	17360.60546875	13785.34765625	18659.240234375	23707.435546875	16876.921875	18127.505859375	17951.771484375	18279.677734375	16046.716796875	16720.0625	19507.18359375	16716.666015625	17811.74609375	17467.271484375	13605.66796875	16085.291015625	18577.1796875	23682.541015625	19181.328125	20272.685546875	19410.70703125	16286.109375	20646.498046875	17644.560546875	14271.671875	19714.59375	17060.603515625	19998.193359375	17084.69140625	18448.724609375	25294.541015625	16386.2578125	20239.248046875	18072.580078125	15265.6865234375	17828.349609375	18634.625	21354.779296875	18865.48828125	15069.611328125	19692.017578125	17574.97265625	18247.572265625	20020.05859375	19038.244140625	18329.087890625	20223.251953125	16006.4619140625	13516.97265625	18023.990234375	17519.642578125	20249.201171875	18621.46484375	18279.455078125	18492.099609375	17851.166015625	18184.109375	18024.55078125	16873.716796875	20567.638671875	19050.826171875	19167.05078125	16943.005859375	17733.291015625	23590.75390625	13552.6357421875	16144.0458984375	13642.3203125
2100	2400	13647.48828125	14427.9013671875	10381.5986328125	13356.798828125	10798.3505859375	12381.5546875	18650.65234375	10931.2587890625	9901.2900390625	15023.88671875	-1043.389892578125	5970.5078125	14987.0146484375	8001.98779296875	12937.193359375	14769.0419921875	9965.2275390625	13622.0087890625	13282.916015625	12866.349609375	16785.171875	9722.4658203125	13681.279296875	6504.845703125	15496.78515625	13454.755859375	-1191.9061279296875	7998.7060546875	8868.3125	13914.1142578125	966.0989990234375	8353.2802734375	15478.630859375	13334.619140625	16505.234375	17954.6171875	15177.681640625	17125.00390625	14970.80859375	16416.306640625	14310.8564453125	15219.505859375	15634.951171875	16115.6328125	15253.1435546875	14802.146484375	12606.8603515625	15389.8984375	15902.712890625	18378.171875	16637.341796875	16439.16015625	16640.759765625	14282.939453125	17166.48828125	15933.439453125	14521.94140625	17292.32421875	15178.162109375	16949.3984375	15326.783203125	16088.57421875	22551.271484375	16012.9658203125	17187.16015625	16047.171875	13667.79296875	15287.583984375	17192.8828125	19937.853515625	15718.3505859375	13888.8134765625	17118.0234375	16684.533203125	14480.9873046875	18864.83203125	15804.7568359375	16818.115234375	17794.58984375	14558.8466796875	11702.951171875	15609.2255859375	15611.705078125	15710.7744140625	16818.759765625	17949.509765625	15742.4267578125	14684.294921875	15735.7119140625	15788.875	13203.455078125	18819.283203125	16709.341796875	16326.8662109375	15297.939453125	16363.697265625	19911.03125	13448.111328125	14150.0341796875	12945.23828125
2400	2700	13055.7021484375	13614.150390625	9044.1494140625	11367.53515625	7877.3154296875	10748.197265625	16269.6279296875	10014.5400390625	10012.7177734375	10987.607421875	-915.3858032226562	4584.71826171875	12912.1416015625	4100.1953125	12634.4423828125	13241.154296875	8663.259765625	12087.6298828125	10553.2978515625	11149.8154296875	13978.2001953125	8978.1875	11198.7578125	718.7941284179688	13413.6162109375	7077.0322265625	-1372.04345703125	7818.46533203125	6822.86181640625	12740.5126953125	1089.2891845703125	8288.47265625	13925.18359375	12187.1923828125	14494.326171875	19560.05859375	13286.3896484375	15184.564453125	14220.876953125	14133.345703125	12949.9228515625	13544.3046875	14812.2470703125	14525.3505859375	13605.1767578125	13296.1474609375	9526.3251953125	13676.4306640625	14779.7802734375	14950.060546875	13887.84765625	14116.033203125	14437.05078125	11597.4482421875	15199.4794921875	13955.2255859375	12773.2861328125	15703.544921875	13941.7978515625	15368.818359375	14132.8427734375	14158.0830078125	21045.453125	14741.341796875	18011.580078125	13126.2001953125	12393.1953125	13499.546875	15549.783203125	16325.396484375	14302.92578125	12469.1806640625	15207.0263671875	15536.3056640625	13095.623046875	16981.189453125	14145.3828125	15951.33984375	15454.791015625	12560.6533203125	9220.0869140625	12916.0810546875	13944.3466796875	14558.1923828125	14810.0078125	13933.0576171875	13955.26171875	14468.39453125	13859.927734375	14057.1904296875	10216.5966796875	17310.927734375	14440.533203125	14835.2451171875	13938.755859375	14629.970703125	17814.119140625	13352.0771484375	13972.4033203125	11132.6220703125
