frame_start	frame_end	parasubiculum	HATA	fimbria	hippocampal_fissure	HP_tail	presubiculum-head	presubiculum-body	subiculum-head	subiculum-body	CA1-head	CA1-body	CA3-head	CA3-body	CA4-head	CA4-body	GC-ML-DG-head	GC-ML-DG-body	molecular_layer_HP-head	molecular_layer_HP-body	Lateral-nucleus	Basal-nucleus	Central-nucleus	Medial-nucleus	Cortical-nucleus	Accessory-Basal-nucleus	Corticoamygdaloid-transitio	Anterior-amygdaloid-area-AAA	Paralaminar-nucleus
0	30	41.52752	351.58127	102.92508	117.64397	177.51604	58.87673	91.8794	104.89558	125.8661	156.16085	77.70982	341.04688	100.73291	174.19934	104.14938	181.33164	100.42714	139.08251	103.36212	128.93388	161.776	344.68634	207.26951	297.05825	300.54975	223.00087	219.58023	132.57616
30	60	3802.21355	5795.7361	4093.64701	4194.78496	4521.44511	3935.44653	4486.8443	3689.65959	4889.38962	3783.66134	4037.34327	4473.88361	4211.38087	3972.78726	4518.11986	4118.93905	4479.86104	3756.10647	4475.77728	3177.09003	3874.79565	4922.61112	4427.05214	5457.60583	5238.89447	6009.58813	4088.99076	4037.16579
60	90	12590.81178	15221.35808	17831.14969	13728.48431	14661.95395	14136.14102	13724.07746	13910.10265	15113.70205	12619.9023	14625.3675	14205.71588	16535.70825	12486.52146	16586.18695	12877.38962	16522.77843	13086.50832	15686.37779	11960.03274	14336.89266	17877.85749	13707.31685	13632.85415	15828.13867	13595.40693	17098.34064	12637.18799
90	120	19496.4738	26495.63631	30117.29233	25019.27308	27571.8864	22890.55156	26709.88002	24606.05912	28225.9905	23314.69563	25654.08813	31136.7299	28555.64021	27730.53241	28558.20207	27104.04026	28828.58708	24908.85596	27755.31879	23031.42404	24195.00127	30697.75653	25172.10467	25172.20098	27303.34415	24557.92231	26085.74848	21609.79054
120	150	32866.60911	32759.29664	41969.54593	38907.68602	36312.99062	38062.45497	36550.32136	37987.15917	40422.75726	36537.01412	37141.65743	41996.09546	41926.58121	39205.54184	41013.86415	38650.40107	40786.13279	38562.01535	40120.55778	32856.05084	38283.12819	40495.30429	35637.18279	32709.16362	38884.92875	34281.65294	36147.89622	35847.89636
150	180	34739.44529	32104.38455	45499.50667	42174.74621	38786.53996	40887.20425	40271.80033	42628.37531	45397.63538	38551.5186	41725.53643	43948.14002	46241.88023	43346.60489	46037.36529	41869.33662	45627.82121	41964.01243	44572.7808	38085.79462	39373.68546	41163.84854	42284.03933	35372.76187	37374.29869	32120.37109	36089.0435	37787.54459
180	240	30440.46267	36858.56327	41938.65293	39485.4189	41678.47637	36517.39987	42271.68079	38838.94744	46258.06863	37454.22007	42055.40542	40075.54715	41418.84133	39895.46756	43353.79267	39447.60639	43719.99016	38887.9827	43778.41769	37914.37447	38970.14018	44673.31534	42156.46893	40233.68428	39751.41893	35975.7404	42373.32243	35085.21112
240	300	30053.66043	31861.78591	43256.29821	37718.07455	37847.44367	36256.40054	38551.52768	40909.30852	43840.17409	37095.58287	39317.45526	37527.81516	41197.62196	37121.37877	42867.30104	36542.29528	43043.90054	38720.46453	41608.71658	40322.97207	39276.09183	40049.46689	40321.66593	35981.84756	37665.65243	32524.9078	39720.78562	36399.56464
300	360	29985.25166	30085.04007	38774.58645	37276.51851	35378.87961	37512.06776	36024.26628	41039.40643	42581.5402	35427.0335	37856.19419	36832.16405	38385.47522	38339.27974	41080.70285	37365.74226	40537.43461	38229.56908	39970.2342	39867.8063	39217.19224	39084.17855	37577.22585	33763.88696	36638.1525	30779.87864	39272.34176	35211.19733
360	480	27101.16637	27696.22504	35426.90578	33405.14199	32089.84205	34347.20163	31539.15017	38383.32738	37384.44273	31990.67983	32027.36265	30238.22432	33097.34859	34021.10799	35658.1537	33026.14571	35970.72898	34614.7889	34680.91096	36573.70543	34139.03986	34297.94427	35181.52246	30639.8875	31963.82968	29236.207	35896.27486	32461.82932
480	600	22368.8544	26169.23723	28855.20035	28684.1151	27811.97253	29249.77971	27501.72759	33681.57065	31586.7586	28226.89661	28011.90627	26339.05673	28046.26536	28240.89501	30193.00185	27978.16282	30221.52075	30000.63438	29542.12236	31202.10727	29948.2701	32343.70261	32714.07919	30603.38379	30407.90993	27941.26326	30826.97315	26780.02666
600	900	20290.6684	22381.48373	23753.20745	23782.57119	21476.53599	25104.10304	22371.18035	27111.2129	24482.13676	23589.15612	21804.30191	22449.39695	22389.02903	24281.81733	23329.98531	23865.87312	23581.93234	24999.31116	23076.49967	27898.47888	24742.62601	26918.59505	29656.91726	27716.00479	24830.43867	23033.88359	24677.03602	24449.75464
900	1200	14526.55147	18771.33433	19121.49961	17998.2785	16688.1745	17895.29095	17871.58522	20621.50023	19430.96056	18313.37948	17888.83696	17348.42764	18226.94153	17751.69873	18384.62623	17898.91207	18384.25127	18797.19918	18513.30637	21791.38215	18910.14828	22260.64816	23920.13033	23167.92593	20335.94423	19220.44034	19549.64112	17734.11882
1200	1500	13363.12851	17071.56879	16553.64626	14833.05269	14295.24141	14818.26468	14317.55698	15998.70518	15763.13703	15212.36945	14582.26103	14704.67336	15885.26317	14191.02327	15444.07312	14554.01886	15591.96281	15014.04005	15238.7518	18217.93316	15694.44581	19645.88109	21459.95685	20630.70254	17621.07134	16819.66189	16552.9278	14480.09753
1500	1800	10849.60914	16355.23126	15122.07939	12719.0974	13214.23927	12318.62727	12587.7536	13387.95129	13752.32986	13194.39572	12945.17626	14649.23992	14463.18008	13536.73584	13942.87668	13666.25273	14072.43894	13155.64071	13595.21275	15274.21801	13390.06469	17692.95053	18454.66992	17774.62681	15924.69141	15650.08386	15119.4446	11795.28229
1800	2100	9847.02794	14892.58912	14546.53719	11581.19488	12317.92357	10494.96425	11909.07253	11383.03062	12627.60808	12230.23925	12581.13902	13335.73374	14113.23239	11568.45731	13212.38717	11915.97299	13339.50861	11600.21962	12956.05332	14311.12868	12590.53501	15620.80304	16637.38241	16291.93044	14053.64976	14363.78472	14510.76448	11099.94149
2100	2400	9551.98435	13383.65756	12334.49796	10999.88166	11529.6697	10155.92078	11496.85055	10384.59353	11398.75351	11485.06722	11827.16136	13605.63073	12678.77661	11322.66227	11759.21065	11448.69369	11815.19894	11063.28895	11721.27895	12312.79697	11248.81004	14561.68257	13408.44269	14193.21152	13047.65256	12607.7499	12456.8825	10245.11684
2400	2700	8734.36046	12738.26129	12355.42111	10282.29709	11204.61919	9504.58102	10197.80082	9501.62105	10964.03663	10335.18417	10851.94061	11179.56899	12251.48227	10334.89768	11428.97971	10568.98437	11320.73885	9975.29329	11116.93078	11267.98913	9613.31477	13272.98684	13531.00959	14269.22185	11852.13265	11536.53963	11311.68388	8506.60162
2700	3000	8016.09903	11832.81759	10318.01771	8990.04249	10241.35482	8073.45495	8807.06033	9014.54414	9418.87472	9898.87952	10539.68378	10341.40423	10753.85892	9279.67657	9788.53698	9601.64251	9774.75015	9251.98876	9616.22751	10024.79182	9029.47879	11477.01131	12145.16135	12054.12244	10290.964	10499.19493	10418.77668	8409.80556
3000	3300	7614.54503	10395.90512	10466.62901	9232.55663	9702.75444	8882.54943	8818.07005	9376.00762	9446.8505	9354.72207	9859.81771	10530.80951	10600.47568	9704.61284	9728.41944	9774.88633	9704.77513	9469.10858	9631.52284	9783.87224	9217.24696	11620.15645	11140.52455	11211.54646	10481.76474	10048.65881	9932.07582	8135.75017
3300	3600	7968.54305	9951.01802	10271.04602	8565.93332	9273.07333	8371.62285	8059.50693	9167.82972	8769.851	9161.3676	9672.74714	9669.67567	10132.29991	8931.12218	9386.52198	9146.57082	9326.25307	8949.2808	9081.38636	9201.23375	7540.46814	9708.47445	9685.67006	10596.50374	8735.74163	8757.14166	9613.00045	7682.64908
3600	3900	6142.07743	8740.2999	9654.6044	7987.10669	9030.26673	6951.07618	7663.9075	8538.28088	8686.75407	8580.80749	9804.23036	9450.44167	10334.36271	8629.71849	9262.81285	8748.7682	9079.45686	8202.83899	9088.70372	8673.88884	7969.76358	7754.64229	7655.45239	7783.74156	7913.35152	8142.58128	9466.20198	6778.72683
3900	4200	5815.71055	9017.64611	9072.62527	7353.03899	8559.72306	6202.9677	6789.65067	7437.62644	8117.30591	7781.70346	9415.8272	8183.32428	9722.23386	7824.78849	8610.303	7913.50071	8492.53603	7388.53862	8339.49357	7531.05356	6889.23709	8321.82672	7788.02532	7713.19694	7471.67898	8003.2438	8468.3105	5819.48919
4200	4500	6845.97067	7048.10255	9340.00441	7715.64505	8075.47595	7435.87105	8068.31743	8059.91913	8169.90436	7402.9838	8393.81973	8380.42016	9167.19947	7437.97486	8936.98969	7410.53851	8826.42311	7550.28314	8450.48396	9025.70833	7078.80087	8942.26737	8496.20958	8332.76996	7002.00226	6576.8404	8774.91673	6930.18211
4500	4800	5898.63011	7875.17826	7576.48344	6141.55009	6559.82165	5908.30892	6273.69239	6390.96881	6805.20594	6972.3712	6943.67166	7552.82999	7572.26718	6523.39413	6781.02943	6738.83867	6850.94392	6587.45882	6814.47577	8306.30235	6811.52501	8243.3745	8309.96591	8123.04584	7010.06049	7107.77291	8741.4975	6358.78279
4800	5100	6385.77457	7181.50034	7300.5152	6706.52992	6429.31326	6595.99449	5992.07957	6610.195	6585.33782	7261.1947	6941.65957	6680.33268	6937.89987	6862.0233	6725.44527	6919.85023	6740.8758	6823.04334	6755.22125	7917.00476	7403.51792	9063.83041	8344.75439	7560.20673	7296.36836	6332.72566	7794.86914	6073.21735
5100	5400	5839.51965	4944.27074	7578.03012	6196.96765	5965.11203	6517.99764	5366.80185	8058.09587	7151.21012	6892.21045	8550.97053	5942.61654	8260.06958	5626.14673	7279.30009	5670.76588	7180.79416	7038.93938	7231.55867	6956.39632	6102.70391	7619.41863	7420.10132	6937.98744	6202.46935	5423.12505	7788.46859	6412.1297
