frame_start	frame_end	parasubiculum	HATA	fimbria	hippocampal_fissure	HP_tail	presubiculum-head	presubiculum-body	subiculum-head	subiculum-body	CA1-head	CA1-body	CA3-head	CA3-body	CA4-head	CA4-body	GC-ML-DG-head	GC-ML-DG-body	molecular_layer_HP-head	molecular_layer_HP-body	Lateral-nucleus	Basal-nucleus	Central-nucleus	Medial-nucleus	Cortical-nucleus	Accessory-Basal-nucleus	Corticoamygdaloid-transitio	Anterior-amygdaloid-area-AAA	Paralaminar-nucleus
0	30	1071.18096	500.54314	796.22116	1043.11448	447.86468	957.32054	1220.01128	361.76196	765.66264	966.86115	250.81937	1250.00094	531.26199	1166.63988	699.06389	1148.91082	800.63891	1014.41924	731.70739	429.45402	799.07448	624.6186	969.70021	530.59227	577.37045	650.24981	1580.53649	785.53878
30	60	3858.16463	3863.49687	3934.54269	4070.10651	3810.7146	4126.55304	4240.20745	3814.067	4841.20658	3552.4698	3251.63955	4154.62632	3475.57937	4265.31914	4038.87549	4150.1514	4167.17974	3723.57247	4060.58468	3427.13941	4106.13251	3154.2239	3749.56122	2773.26632	3479.72697	4205.48555	5912.9591	3383.29609
60	90	10133.82407	6559.00271	10505.7836	8986.19325	7537.19093	9565.61809	10216.65811	8357.83905	9988.39584	7477.90046	7585.59962	8144.3504	9177.86831	8278.98734	10103.57121	8029.73285	10073.58306	8118.31503	9530.69978	8331.45832	7850.28333	7237.50462	7524.02293	6301.24309	6852.25272	6421.67616	8902.33791	7221.33231
90	120	12200.55261	10400.21771	12510.71626	13050.78395	10954.62307	14661.23328	13204.38632	13168.07287	13579.10584	12056.94873	10652.70877	12564.85295	11005.0644	13466.17257	13007.59061	12936.47876	13041.66557	13270.86871	12550.74575	10713.48776	11260.14568	11359.86031	12920.97926	10394.25293	12356.30584	11446.2002	10331.85612	10980.55995
120	150	11098.86418	10885.60857	14076.08925	14991.15542	15137.81369	17416.13385	14715.95585	19123.07026	14844.87571	13916.71826	12052.49268	14084.23131	12970.31652	16019.0624	14037.39354	15791.59354	13989.23845	16390.97601	13859.79097	11664.55439	12394.34405	14121.53912	14749.90855	15800.13348	13870.46888	12401.99774	12823.16974	12622.71529
150	180	11717.02907	9994.56601	15564.25563	14773.70133	12501.70588	14884.42129	14870.37877	17231.23337	15413.1808	13315.97933	11061.44717	12926.30804	13341.4165	15617.3242	14880.69899	15353.82847	14844.44325	15260.5747	14207.39604	13705.36584	12674.79776	12716.14059	13245.47145	10782.96998	11887.38062	9868.3436	11579.95081	12037.4068
180	240	12533.01383	10618.46326	14476.21992	12702.94001	12938.07079	15272.71308	14356.11664	16299.17747	13987.45504	12862.60164	10865.61379	11923.13811	12187.83967	12546.42708	13583.40216	12859.77249	13742.21223	13986.77926	13109.64805	14417.90164	13142.64366	12010.07394	13731.88844	10604.67856	12266.99357	10970.14091	11265.95877	13918.98023
240	300	13731.14512	9801.39607	14481.00945	13181.5791	11740.79972	15998.27378	14221.88542	16756.8246	13960.71676	12565.01614	10913.65095	10845.31531	12607.75233	13014.62822	13385.58875	12595.39101	13653.24977	14249.86543	13200.22624	12738.97265	12462.66268	11421.11613	12306.19168	10218.39612	11885.72524	10567.22785	11155.58482	12751.08937
300	360	12043.13099	10468.05131	13559.69265	12692.63465	9969.47282	16307.70007	12430.20441	16074.16594	13797.3068	12677.37532	10963.94421	10831.32604	11543.73654	12651.98345	12942.30395	12742.43176	13118.50608	14011.15433	12479.56267	12349.14078	12675.45632	12846.76826	12676.68445	10755.81178	11457.66365	9984.88602	9419.37818	14159.79606
360	480	9065.90228	10012.40766	12354.86666	11740.88386	10056.92419	12779.7743	10752.59672	15030.18796	12328.68621	11968.51031	9896.049	9483.58958	10328.66234	11467.13407	11620.83574	11696.67617	11752.09811	13025.34894	11045.3096	12528.17129	10892.19428	10917.03809	12480.50566	9917.60434	10077.26585	9426.71751	8907.24163	12501.04482
480	600	9179.94966	8093.11135	10586.56413	10449.30117	9124.24071	11584.97392	9531.2865	12986.64877	10084.38137	10817.10406	9168.95643	9011.87216	8825.45885	11269.18632	9620.04081	11247.57779	9934.95974	11762.08895	9506.61268	11849.67849	10231.98858	10475.08181	12255.97645	9188.98982	8648.44131	7772.46285	8972.28669	10729.38056
600	900	8404.90046	8675.08985	9757.17085	8970.08215	8263.39478	10584.98444	8535.68832	12137.37289	9668.63405	9569.6459	8639.20216	7931.30242	8653.25618	8807.53958	9251.39645	9281.75975	9431.12186	10120.63242	9001.42667	10644.5208	9405.54548	8984.63046	10260.39467	9074.4073	8843.24796	8274.86107	9155.37066	9749.02168
900	1200	6851.32614	7802.59813	8524.87864	8044.62825	6565.30336	8265.3661	7326.09032	9784.42489	8345.39127	8178.85981	7757.98019	7233.17474	8000.20367	7720.31202	8136.66399	7972.98662	8330.75847	8407.49569	8021.74499	9471.18342	7931.24517	8306.35872	9708.64227	8412.45251	7840.72929	7275.77027	8168.6824	8074.84424
1200	1500	6445.61379	7012.59421	7643.51212	7144.01295	7020.16467	8311.49176	6579.13565	9076.16936	7839.88689	7305.17603	7157.89871	6217.32426	7146.95098	6612.51691	7357.32064	6915.4108	7422.55883	7621.38181	7193.1523	8938.10328	6718.85581	7273.11198	9382.42424	7883.81222	6970.30796	6951.49994	6617.46929	7265.81748
1500	1800	5336.83927	6697.12931	7162.62403	6138.46399	5797.63373	6330.50444	6155.16114	7645.12491	6336.31447	6273.79939	6163.88918	6451.58677	7000.11321	5910.78323	6568.5127	6158.08586	6572.37917	6363.05429	6396.84768	6880.94656	5661.31643	6999.93295	7428.424	6827.88865	6355.75533	6623.16348	5622.40762	5559.07329
1800	2100	5465.40398	5826.3974	6379.3673	5588.36779	5323.51378	5737.4555	5100.69427	6955.35583	5865.44373	5629.28781	6133.56601	5570.0434	6301.12736	5277.6282	5918.6514	5509.79551	6046.1742	5782.59058	5863.52993	6819.90685	5260.59143	6982.57101	6758.06816	7043.70022	6099.49488	5373.94053	5536.23226	4822.76505
2100	2400	4982.15371	5707.58681	5953.98191	5574.35181	4999.07875	5729.93946	5249.15433	6826.94935	5318.82372	5845.58399	5340.86684	5666.00081	6011.62646	5888.31518	5463.73791	5834.80192	5435.5592	5932.80804	5382.87289	6223.13956	4721.95444	6112.88374	6583.84275	5877.39517	5063.42195	5172.28779	5270.69528	4680.12594
2400	2700	4005.47385	4802.75912	5241.50956	4882.73499	4682.60287	4957.18163	4113.07018	6226.00253	4993.54421	4872.02075	5198.96542	5081.66133	5605.03973	5035.68016	5184.32256	4990.58653	5094.2696	5194.06001	4985.05232	5715.95257	4478.9194	5489.44001	6158.38592	5661.77958	4964.09452	4670.3725	4467.66039	4335.04624
2700	3000	3846.44519	4816.24148	4683.38724	3811.39189	4495.89146	3836.4953	3824.18866	5056.59812	3987.72508	4508.70546	4621.55588	4883.78035	4759.18528	3929.3885	4278.76172	4274.25871	4318.32492	4233.45994	4283.20395	4949.41469	4504.39924	5404.8834	5039.54873	5151.56086	4598.87714	4397.10101	4877.60623	4230.2813
3000	3300	3391.09864	4750.98129	5004.04429	3883.24775	4417.80159	4066.79873	4070.83724	5126.33124	4253.23363	4041.86006	4538.40842	4251.73946	4982.41234	3776.74084	4397.82201	3962.30321	4470.62202	4056.75866	4379.64385	4936.3647	3977.94	4502.96917	4557.29661	4115.98986	3991.48358	4160.64596	4110.74589	3829.66182
3300	3600	3852.30058	4987.87391	5044.28934	4222.8987	4521.73402	4217.15199	4078.07779	4900.8787	4819.27225	4391.29898	4625.95869	4404.48459	5073.04837	3764.09911	4512.17448	4278.11936	4625.19556	4073.46684	4476.89254	4348.04513	4035.18049	5540.72365	4222.96003	4788.84229	4920.93745	4225.31026	4479.50777	3584.66406
3600	3900	3711.12052	4605.60327	5008.17952	4370.38232	4411.54777	3814.80446	3974.95962	4265.10989	4947.11749	4644.98005	4975.98532	3584.03513	4812.3585	3728.81163	4848.49956	3991.55436	4921.24911	4245.39476	4765.63113	5051.27932	3607.90684	4375.39164	3736.525	4486.28742	3817.94946	3784.14178	4594.29235	3210.51107
3900	4200	3716.6067	5193.00489	4335.96549	3641.11213	4320.06032	3831.91837	3192.53528	4251.4873	3739.78812	3854.94594	3797.45886	4166.73336	4233.89566	3846.92318	4049.02743	4046.14054	3944.44431	3788.15999	3790.06256	3849.25462	3152.56526	4782.01656	5045.30125	4433.08387	3642.18203	3851.49761	3561.80487	2896.49561
4200	4500	4567.2221	2887.00771	4914.91958	4194.21312	3702.22503	4113.33542	3971.56846	4691.33101	4042.50527	3930.00954	3531.06738	4103.04615	5523.20404	4131.09577	4671.159	3849.2305	4576.46409	4226.20208	4456.67863	4958.65249	3613.2971	3910.91519	3772.15292	4494.54294	3162.46613	3326.90632	3260.20468	3965.287
4500	4800	2174.40935	4251.19199	4338.12098	2853.85997	3467.5754	2301.45851	2961.86584	3608.31347	3188.33623	3170.50545	3900.28715	2989.35014	4296.42436	2670.43836	3138.86831	3030.71949	3447.23061	2842.72262	3405.451	3940.8511	2584.68147	3551.53511	2925.76432	3058.80525	2404.74345	2499.10984	3492.28568	2531.98774
4800	5100	2103.43648	2301.67088	4599.71237	3372.26788	3042.14995	2526.87165	3470.08317	3847.77706	4353.26282	2695.47765	4803.33584	3188.39455	4788.79558	3048.12914	4464.12626	2988.35903	4634.33157	2998.09895	4500.13893	4006.11309	3505.22722	2864.05028	2603.04042	1851.11453	1866.02542	1721.72414	4194.31202	2823.10015
5100	5400	2495.34256	3611.73542	3337.12613	3022.43892	2236.40337	2482.99598	3616.7188	3002.01273	3637.8002	2585.27535	3458.79064	3238.39091	3943.12886	2698.00058	3123.04331	2676.74449	3249.12667	2718.90516	3408.23279	3364.64015	2408.89622	3944.73577	3772.3321	3136.76714	2977.80019	2615.72654	2281.50335	2268.90983
