frame_start	frame_end	Left-AV	Left-CeM	Left-CL	Left-CM	Left-LD	Left-LGN	Left-LP	Left-L-Sg	Left-MDl	Left-MDm	Left-MGN	Left-MV(Re)	Left-Pf	Left-PuA	Left-PuI	Left-PuL	Left-PuM	Left-VA	Left-VAmc	Left-VLa	Left-VLp	Left-VM	Left-VPL	Right-AV	Right-CeM	Right-CL	Right-CM	Right-LD	Right-LGN	Right-LP	Right-L-Sg	Right-MDl	Right-MDm	Right-MGN	Right-MV(Re)	Right-Pf	Right-PuA	Right-PuI	Right-PuL	Right-PuM	Right-VA	Right-VAmc	Right-VLa	Right-VLp	Right-VM	Right-VPL
0	30	571.64109	540.68272	828.92881	709.00372	697.48137	887.99219	782.0544	603.22126	1082.64116	671.82507	1605.75363	717.817	562.30147	623.39803	875.49749	592.47983	581.14459	581.87531	803.24825	603.90217	798.18856	485.10522	562.23793	622.41951	392.36587	443.38428	412.6852	684.73851	1032.92035	737.57772	527.23991	579.55591	492.40825	1030.6223	503.1084	401.661	732.60456	1057.83141	644.74077	539.93151	445.08063	296.71119	463.59124	484.42921	847.02338	667.95306
30	60	8690.55612	5555.93937	12050.11165	7512.35664	12902.91052	8794.68751	12969.22816	7337.18894	11140.23017	9997.50341	10302.49879	5476.25899	7841.75531	10197.47236	9209.9071	9082.35943	8748.28981	5725.56492	4828.99189	6318.84469	7793.83115	5148.36963	7397.72841	7475.088	6652.60153	8602.37744	7898.66267	9298.32905	7613.84082	10087.1048	8992.1034	9793.94109	9414.90879	10107.18248	6870.86373	8104.69766	9582.20015	8858.74348	9605.9923	8154.34192	7472.82562	6562.30137	6948.16433	8927.67744	4150.19751	7867.2093
60	90	19048.71892	17499.24538	23374.6681	22136.60687	21273.74899	20223.19449	22774.35131	22507.99155	27306.59632	23833.58956	19581.2009	18102.36792	20762.73859	24058.53831	18975.85692	22236.8566	20593.93784	13583.23673	16934.02246	17491.59935	20152.06438	11530.20459	17244.70084	18432.7016	17251.01809	21504.24349	22019.49977	23395.32487	19498.79389	25315.68753	18277.30829	25976.10957	23095.49776	25060.31868	14729.74099	18892.15076	25927.89518	20685.57178	21201.09208	21410.61427	16451.8358	16297.17637	17191.18178	21316.46399	14341.93335	18235.56235
90	120	31269.71802	28738.39113	42013.22826	32143.12292	41108.4864	34281.22364	44653.59026	32080.91162	39368.52924	36814.17347	32158.58549	31080.70052	34891.3234	39550.06525	33314.55044	35523.86232	34475.11203	24302.38324	31091.99961	28902.71935	33467.31487	24217.16797	31852.54142	30510.99992	30138.68849	37156.94271	33235.49455	35577.54727	30163.98779	40657.83536	28631.93915	41199.80014	37428.33421	31932.1031	30753.0652	30817.0059	41902.43799	31806.73746	34210.64524	32566.26311	25500.38607	32492.12461	28600.69545	34624.29935	22508.35596	30504.55192
120	150	40754.97975	40025.24905	52326.99948	49411.43148	52675.63354	45743.3864	61158.62808	40779.60371	57316.71325	52235.03921	46580.18186	37888.95378	44594.1691	56453.12632	43253.42051	50587.68008	50418.63665	32598.69281	41328.79219	39824.15934	46088.2358	27223.5332	41071.50329	38727.67329	37111.00065	43435.00499	42995.78354	45158.87422	42397.54956	56993.29102	42202.81971	55108.34766	48946.96907	47237.34664	37678.91076	40170.22871	55879.90769	43109.07089	51615.21494	45490.81408	31061.38919	36456.14297	37688.40579	46683.24329	29925.22998	40196.98351
150	180	45492.31161	42298.45418	61017.30443	48812.21983	57098.95327	50141.28879	64867.89639	47835.45723	61238.59844	55596.48475	50481.59548	42884.88672	48152.38874	61496.92052	48350.97419	57382.40472	52378.30374	36830.94421	43331.40938	43217.03885	47477.84168	32287.77637	45312.07824	41171.15218	41227.10336	53762.85764	49773.77631	53796.27708	40759.70325	65652.0122	44560.45553	60627.64036	54659.00659	40670.76484	43927.04808	46266.39613	60596.7788	44276.31575	58977.27635	52840.82688	36721.89874	43089.47734	42967.00991	51712.12739	41606.0918	45592.38876
180	240	47838.25164	44658.63051	64486.03411	52147.51316	60548.25492	43989.90173	66024.10397	47775.85	63614.11935	58820.40446	45108.03738	44845.84277	50232.94202	65144.27452	46329.66617	59612.02139	54825.40124	37482.83273	44371.44922	44336.8343	52219.65968	35675.50781	48614.86152	41924.61337	46477.89078	52266.47049	50862.63996	52760.31393	44646.4176	64656.146	45707.32782	61895.39655	55979.4671	42375.04241	48660.82151	48943.19305	64571.05447	45993.59945	60100.70725	52150.87441	38924.59242	49957.64922	46798.64888	53565.01495	35594.62109	48294.64199
240	300	43815.53207	43329.4983	56296.64479	56154.99746	50829.73365	44160.98329	62951.77718	48259.94512	63096.58136	56394.42483	44965.75089	39576.18327	49134.44024	64787.69038	47348.66203	62447.8974	55216.48976	37781.6298	39521.32109	45176.28026	53061.257	36887.90625	52287.9776	42104.39696	45851.31036	53959.91493	50913.91595	52075.07174	44447.62727	61650.8367	40890.03516	63136.32413	57641.15075	40969.61394	45105.89844	48575.51195	59808.89447	45936.69458	55320.41313	49969.95767	37481.69519	46322.97578	44501.4518	51775.40427	37004.5957	46166.54343
300	360	44452.14971	42010.61248	57038.04583	52393.45783	51173.85127	43230.04017	64915.94866	44920.19492	59855.55147	54493.16794	43337.71895	43771.55143	49644.70326	64587.42198	46708.84781	60938.00111	51693.44014	34839.67098	43151.17891	44175.42725	52530.84648	31725.4873	51944.3909	39710.28807	44770.97333	52281.16667	52813.23376	48335.18724	43661.73963	60453.39544	41733.47957	59368.18914	53126.39651	42631.86206	45070.14423	50840.91895	59909.49058	46108.15349	54018.93116	49091.3266	36024.57143	47356.74219	43213.07835	52152.62199	34527.35889	44719.98011
360	480	40947.09474	41630.63051	54211.36641	52023.37599	47719.30411	40861.13435	56669.18767	47273.48438	57125.63259	50918.159	42429.22357	40474.57096	50666.48691	60501.99718	45621.93408	56087.92949	49344.05109	36928.60083	40385.58516	45624.58701	51719.49479	33649.33594	49278.74648	39819.91086	41279.00234	51955.66233	49971.26775	45541.85677	37934.11268	55400.12862	39203.96244	60725.94802	53248.8135	39951.89357	41540.21514	49770.27672	56376.41112	42094.73883	50876.49482	46436.92226	36131.63747	42813.85313	43151.15254	49168.72338	33595.33887	43070.70772
480	600	38804.25282	39905.75601	46613.46224	48321.67393	37881.94076	36132.90102	47993.93786	40831.66211	52276.88538	46195.46557	40941.94452	39153.04036	46347.26521	51778.45676	42326.15849	49035.25523	41732.16109	35880.56625	39694.21875	43462.19485	47187.82877	31576.58301	45589.54848	35743.55359	41517.27555	41952.02561	46378.59407	36200.41458	35899.66381	46610.2177	36872.28846	52391.93995	45788.69431	36879.1426	41179.35577	43940.84988	51428.09416	39717.40678	45084.98626	42400.63779	34639.78194	43456.25703	41235.80549	46278.10402	32771.21045	40537.77999
600	900	31977.4997	35247.23943	37679.84766	41467.68387	30673.07928	34411.29077	37412.03078	35726.59072	43769.80383	38519.2323	36423.65234	33768.35807	37052.33073	44051.43128	37656.99052	40169.98021	35457.76641	31228.21019	36290.57578	37213.54364	40428.04904	29098.85938	39671.5809	31498.79815	35994.52234	34920.18056	40310.14626	30119.44115	32341.65573	36381.05319	31234.79627	42895.62702	38251.35781	33953.88266	35645.46289	35085.42266	41017.81682	35762.54424	39006.17099	34449.96747	32196.32248	37866.70234	37463.28497	39918.71659	28834.81543	35942.12799
900	1200	25483.77941	29745.85892	28013.24648	34342.42457	21911.62507	29110.92876	26045.68717	27397.74023	32896.02732	28461.56886	30702.91095	28895.97949	28902.09324	32775.00608	29580.93835	32749.46611	27396.62485	27818.43017	30841.38086	32121.66535	33313.98325	26350.25586	32779.44354	24505.36523	30897.87018	25633.43294	32532.18269	22228.93952	28539.49331	25431.92949	26035.83804	33168.22994	28866.03656	30480.66453	29767.51262	29236.24129	31310.68556	30190.14141	30013.09776	27181.99884	28042.50767	33340.72383	31349.18739	31701.86827	25516.27344	29943.16899
1200	1500	20592.6151	24356.0448	21196.12786	27049.94301	15943.67893	25788.38376	18221.55444	22880.06807	24310.01586	21520.66235	26708.31537	22541.83122	22258.28749	25470.16599	25431.55626	23366.74561	21494.50474	24265.34289	24972.88594	25807.82901	25478.37683	24467.93457	26934.9694	20961.62655	26003.30365	18867.27941	26615.71795	16505.26351	24640.25416	19339.37283	21682.67037	25618.05038	22143.69285	27098.00978	23847.42894	22301.75902	25073.51375	24831.09798	23157.89568	20711.26455	24694.36663	27577.43164	25721.48084	26072.9374	24038.62842	25904.77461
1500	1800	17081.33384	20401.03105	17136.02272	21054.51346	14554.53545	22527.71674	14893.6909	16921.04033	20246.84327	17607.20458	22360.6162	20190.78955	16033.26381	19432.65045	20531.37892	18185.84474	16992.13264	20207.58976	22128.5582	21099.7195	20638.61326	19958.8125	21073.98205	16394.58633	21623.28201	15250.05078	21342.43464	13576.31842	22543.74206	14876.10675	18140.51262	20835.59537	18034.65327	21059.29417	21874.88462	17916.69373	19063.23251	20581.13239	18296.58052	17335.23896	19888.1899	23509.18281	21371.3258	21807.96801	20278.23486	20658.79307
1800	2100	14158.92856	17233.02703	13937.7291	16799.79532	13447.14833	19946.62733	12060.92201	13859.96411	15957.22602	14625.99927	19095.4862	18520.45443	14324.27966	15604.65545	17817.99094	14865.9294	13692.69922	16179.43985	18549.73164	16766.11725	16877.383	18334.54688	18142.10893	14633.89756	18426.61971	13478.16395	16448.72637	12512.58229	19280.84818	13293.65761	16258.66774	17198.80816	15418.49248	17127.06514	19536.04417	15232.84469	16191.5964	16249.63825	16742.05721	14737.67515	17698.62383	19323.60625	18014.96818	17738.4872	18962.21338	18258.88853
2100	2400	13630.77461	16384.92393	13321.72708	15027.92817	12109.71452	18335.97448	11937.49799	11857.16196	14928.40268	14041.64654	14878.65208	16695.76644	12038.83589	13749.9888	14596.50928	13689.70587	12624.86797	15197.28821	18004.62383	15540.86499	15310.41083	17253.71289	15753.47201	13058.71644	16530.91246	12571.4502	14781.31975	13108.33021	18934.65407	12705.53932	14380.97957	14451.18829	13665.95891	16106.55314	16797.11343	13228.40662	14640.52811	16023.06921	14459.25646	13685.45358	15259.76803	18068.67148	16095.29599	16006.8501	17849.93652	16707.62967
2400	2700	10951.72774	13589.34772	10466.84935	13219.19991	8962.20685	16528.00315	10290.73437	12082.72622	13105.62939	11302.65507	15925.11787	13115.46297	10585.24902	13486.18227	14296.81004	13117.48926	11485.90852	13753.24764	13613.72871	14229.3191	14064.05792	17781.96875	15726.03564	9943.78536	13438.94336	9490.4503	12567.95031	10495.0167	17218.69362	10556.98518	12758.69081	12305.29565	10909.51885	14495.50337	13673.71454	10993.74973	12761.52853	14992.14522	12930.50377	11862.32706	13183.99097	13985.01133	13950.68926	13889.97653	17606.00586	15026.33121
2700	3000	10704.73632	12927.42506	9748.31289	10459.38676	8768.56152	14449.63189	9204.64221	9170.02153	12631.66323	10525.90784	12889.89121	13143.73633	9161.69717	11622.0545	10916.53251	11273.75039	10105.91655	13352.52458	14290.69727	13423.85474	12706.50036	13612.0166	13092.35887	10327.60836	12696.13602	10039.94689	10568.78472	11693.53688	15318.28744	12283.13821	11990.08406	11534.24059	10146.62878	12244.67373	12149.18142	9041.24939	10673.28406	12363.74151	12276.78852	10472.09012	12931.27906	13314.92813	14659.49332	13785.18409	17152.51611	14002.53673
3000	3300	7899.96345	10571.17164	9012.70872	7476.05349	10219.93249	11333.8877	10561.65245	7043.48713	8447.79707	8519.7775	9016.5901	11161.66073	5745.54271	8186.97278	9910.99018	8574.30721	8583.48648	8609.41075	10459.45371	8255.00059	8905.55174	12313.97217	9878.70064	9816.91681	11079.0266	8462.98671	10303.64991	8197.40151	12738.02313	9091.63341	12218.1096	10283.16849	9309.58542	11186.83846	11404.15092	9487.52493	9884.06298	11741.92328	12493.2595	10151.78482	13139.6121	10869.6834	12538.10734	12131.74398	14327.99854	13040.58965
3300	3600	9435.05325	9805.09063	7967.0109	6814.44395	9141.70497	9258.22672	10328.39084	5993.92031	7101.33702	7300.89547	6590.21568	9490.3772	5686.98095	7639.51115	7296.13865	8506.32872	8356.84221	9151.2174	9516.40254	8684.3356	8307.78917	11681.23975	8989.80276	10072.46876	10469.85689	8116.44466	9530.33803	7491.99671	11968.33752	7852.65654	10414.21011	9937.77075	8554.92022	9436.97591	10624.33444	8943.84979	8746.91746	10010.7509	9294.54003	8790.32907	11570.7054	11354.73262	11467.78689	10916.53767	13445.36938	11743.38715
3600	3900	9908.62918	10627.69196	8837.77995	7397.21863	7767.69557	10611.2948	8964.83582	6667.29021	8751.6718	8698.67069	6930.8854	9611.03341	6027.64019	7179.65175	7513.71121	8925.12803	7438.77955	10691.05074	9492.15703	9670.82437	8874.12762	11807.45264	8877.04146	10778.19884	11158.97986	9758.45052	9819.51757	9669.44749	12138.06899	9982.53231	11271.12515	11048.38096	9497.41111	8586.43654	11900.90279	8709.21767	9890.46408	8913.56051	11103.72341	9559.88969	11700.9074	11620.63906	12206.89985	11827.32687	16072.57446	11667.37626
3900	4200	8804.84613	9248.70097	8347.70658	9442.65252	8008.21459	10493.92223	8823.383	9479.17021	8718.15066	8143.6956	9855.85316	9357.82845	7723.74944	9179.07955	9321.23535	9931.51486	9114.70085	9959.1119	9523.81641	10598.34367	10216.28371	12184.23828	10864.98922	9089.35881	7763.75015	8932.30382	7498.68922	10568.21012	12325.04407	10577.6065	11218.58872	8098.73498	7274.39799	10258.90306	8108.04954	6996.95664	7943.75989	9403.33031	10744.86493	8819.95533	8778.18107	7676.13887	10719.73402	10466.38159	13278.34106	10638.028
4200	4500	8380.48482	9337.70065	8332.06569	9877.15347	7714.19229	9566.32812	7246.99321	7996.22703	8536.06935	8146.64903	8230.44612	8398.67375	7717.48374	8657.58881	7891.6638	8783.52382	9062.70305	9460.37284	9754.89531	9039.34169	9106.68942	10746.37549	9794.07163	6626.99257	9784.88904	7518.66569	10591.50029	7638.24557	12519.26386	7090.11728	8428.58113	8097.98028	8406.30397	9041.3291	11593.98828	10294.15335	8853.75599	8916.93407	9245.68331	8046.60109	8617.83605	10348.63418	9218.19457	9206.62726	12256.29761	10799.16236
4500	4800	6112.57432	8297.27721	6969.44857	7358.02194	5768.29735	10590.29454	6739.65857	7276.52104	9034.38952	7687.17813	7590.4983	9826.82992	7429.7576	7740.24714	8136.22598	8791.05666	8354.87477	8684.49636	9498.32832	9340.904	9628.96471	13926.48975	10102.05769	5945.28163	7316.97172	7135.54601	7525.99684	11042.64696	9505.68253	11047.51706	8164.88567	7813.5253	7022.00974	6918.82876	6764.66511	6793.68106	8720.49245	7012.17263	8737.78207	7757.73159	7378.6463	7182.97451	7896.28137	7989.08119	13202.08228	9229.08477
4800	5100	7471.81335	8435.96238	7107.44346	9264.20049	6575.95484	9903.37533	7033.8548	7654.5332	7379.18276	7432.21122	9966.35389	7672.96065	7610.0466	7964.92611	9303.47448	7265.01676	7939.44472	8703.33588	7955.67646	8320.15366	8326.17719	9136.27002	8649.05636	6350.3366	7781.6699	5009.02718	6537.11787	7515.59759	9356.73284	7859.03963	6495.91031	7574.87825	6786.50188	6669.0907	6781.76559	5584.32514	7410.14144	8384.89415	6819.13875	7524.86266	6522.03837	6473.55547	7666.04657	7439.87286	10956.37842	8403.27962
5100	5400	7722.87463	8632.59144	7741.55785	6742.76107	6519.06519	9447.5259	6340.21541	7607.04265	7642.63729	7171.82073	10461.75178	9441.02311	5758.37537	6704.90255	8980.18253	8099.75761	6408.03192	7888.0819	7822.06299	7650.09259	7812.58767	13139.27686	9847.84652	6445.20968	7668.24224	7052.10612	8752.3614	9048.3686	9122.56803	7831.932	7808.74775	8442.90134	7009.31781	9227.71612	7158.14573	5769.87208	6756.14664	8918.68395	6609.99903	6437.90103	7223.63809	7591.01133	8184.72371	8447.14515	13257.41187	8822.24339
