frame_start	frame_end	Left-Cerebral-White-Matter	Left-Cerebellum-White-Matter	Left-Cerebellum-Cortex	Left-Thalamus	Left-Caudate	Left-Putamen	Left-Pallidum	Brain-Stem	Left-Hippocampus	Left-Amygdala	CSF	Left-Accumbens-area	Left-VentralDC	Left-choroid-plexus	Right-Cerebral-White-Matter	Right-Cerebellum-White-Matter	Right-Cerebellum-Cortex	Right-Thalamus	Right-Caudate	Right-Putamen	Right-Pallidum	Right-Hippocampus	Right-Amygdala	Right-Accumbens-area	Right-VentralDC	Right-choroid-plexus	AirCavity	Skull	Vermis	Pons	CSF-ExtraCerebral	Head-ExtraCerebral	ctx-lh-bankssts	ctx-lh-caudalanteriorcingulate	ctx-lh-caudalmiddlefrontal	ctx-lh-cuneus	ctx-lh-entorhinal	ctx-lh-fusiform	ctx-lh-inferiorparietal	ctx-lh-inferiortemporal	ctx-lh-isthmuscingulate	ctx-lh-lateraloccipital	ctx-lh-lateralorbitofrontal	ctx-lh-lingual	ctx-lh-medialorbitofrontal	ctx-lh-middletemporal	ctx-lh-parahippocampal	ctx-lh-paracentral	ctx-lh-parsopercularis	ctx-lh-parsorbitalis	ctx-lh-parstriangularis	ctx-lh-pericalcarine	ctx-lh-postcentral	ctx-lh-posteriorcingulate	ctx-lh-precentral	ctx-lh-precuneus	ctx-lh-rostralanteriorcingulate	ctx-lh-rostralmiddlefrontal	ctx-lh-superiorfrontal	ctx-lh-superiorparietal	ctx-lh-superiortemporal	ctx-lh-supramarginal	ctx-lh-frontalpole	ctx-lh-temporalpole	ctx-lh-transversetemporal	ctx-lh-insula	ctx-rh-bankssts	ctx-rh-caudalanteriorcingulate	ctx-rh-caudalmiddlefrontal	ctx-rh-cuneus	ctx-rh-entorhinal	ctx-rh-fusiform	ctx-rh-inferiorparietal	ctx-rh-inferiortemporal	ctx-rh-isthmuscingulate	ctx-rh-lateraloccipital	ctx-rh-lateralorbitofrontal	ctx-rh-lingual	ctx-rh-medialorbitofrontal	ctx-rh-middletemporal	ctx-rh-parahippocampal	ctx-rh-paracentral	ctx-rh-parsopercularis	ctx-rh-parsorbitalis	ctx-rh-parstriangularis	ctx-rh-pericalcarine	ctx-rh-postcentral	ctx-rh-posteriorcingulate	ctx-rh-precentral	ctx-rh-precuneus	ctx-rh-rostralanteriorcingulate	ctx-rh-rostralmiddlefrontal	ctx-rh-superiorfrontal	ctx-rh-superiorparietal	ctx-rh-superiortemporal	ctx-rh-supramarginal	ctx-rh-frontalpole	ctx-rh-temporalpole	ctx-rh-transversetemporal	ctx-rh-insula
0	30	51.57661437988281	37.033782958984375	34.17236328125	66.6788101196289	48.108619689941406	79.03425598144531	92.8716049194336	54.20841979980469	53.345008850097656	71.0082778930664	44.18153381347656	27.078102111816406	53.408935546875	40.70988082885742	47.302852630615234	36.54985809326172	50.82278823852539	66.54511260986328	70.91034698486328	64.46559143066406	104.86971282958984	42.54953384399414	44.25151824951172	47.24335479736328	107.37493133544922	48.221412658691406	27.228137969970703	44.19119644165039	17.8718204498291	35.29341506958008	47.795166015625	38.56297302246094	25.58636474609375	65.2884292602539	62.74353790283203	43.898345947265625	53.508689880371094	53.460941314697266	47.051876068115234	42.396968841552734	72.44395446777344	40.718963623046875	63.974586486816406	69.02800750732422	101.18193817138672	29.532428741455078	49.5794677734375	47.163787841796875	64.26639556884766	66.7798843383789	71.22137451171875	60.02145004272461	74.60614013671875	36.89763641357422	62.36856460571289	36.764869689941406	37.03412628173828	63.33833694458008	50.483238220214844	52.98515319824219	79.33317565917969	48.55265426635742	28.42378807067871	118.65380096435547	123.48882293701172	103.38937377929688	75.52043151855469	62.30107498168945	19.84136390686035	46.248531341552734	40.76553726196289	48.50261688232422	23.786937713623047	39.48574447631836	54.42593765258789	47.167789459228516	37.085689544677734	52.7973747253418	63.95842361450195	68.63536834716797	59.147239685058594	47.23594284057617	26.811920166015625	38.27231979370117	55.84247970581055	50.79622268676758	39.657527923583984	42.10197067260742	45.22686767578125	42.16434860229492	30.82858657836914	40.48255920410156	47.56214904785156	33.07288360595703	74.7458724975586	61.722023010253906	64.74910736083984	28.2099552154541	130.3885955810547	55.5634765625
30	60	2754.44873046875	2844.742431640625	3617.419677734375	4058.012939453125	3448.506591796875	4200.5751953125	3113.6181640625	2671.727294921875	3663.237548828125	3025.505859375	2141.1630859375	3372.95654296875	3265.35205078125	2207.53955078125	2674.99853515625	2760.67236328125	3661.019287109375	3473.10986328125	3345.405517578125	4160.1494140625	3001.52587890625	3096.44140625	2813.083251953125	3858.585205078125	3090.548828125	2421.201904296875	711.7407836914062	1201.6065673828125	3100.644287109375	3310.111572265625	3150.322265625	924.0592041015625	3509.185791015625	4044.640625	4222.47412109375	5522.4755859375	3226.6904296875	3520.48291015625	3547.26513671875	3459.430419921875	4186.6064453125	3643.793701171875	4099.876953125	4359.17724609375	4181.14111328125	3661.67919921875	3945.664794921875	3652.879150390625	4547.0966796875	4465.35107421875	4396.2021484375	5124.17041015625	3720.574951171875	4812.1220703125	3904.0595703125	4286.3720703125	3958.777587890625	4134.896484375	3934.209716796875	3612.2373046875	3735.11279296875	3854.184326171875	4419.94580078125	2598.378662109375	5210.69482421875	4286.74365234375	3846.0009765625	5023.9013671875	4009.232177734375	4518.65380859375	3964.948974609375	3135.20703125	3395.989990234375	3475.498291015625	3977.1591796875	3508.589111328125	3807.380859375	4154.26513671875	4026.98974609375	3509.474609375	3364.84912109375	3899.253173828125	4291.94287109375	4147.51904296875	3949.98828125	4177.75	3667.34423828125	4523.9033203125	3899.638671875	3746.503173828125	4632.193359375	3915.35400390625	4071.774658203125	3404.432861328125	3578.533935546875	3686.69873046875	4346.37109375	2713.595458984375	6454.828125	4412.169921875
60	90	8890.796875	10156.80078125	12587.5986328125	12252.1845703125	11900.482421875	13724.576171875	9631.337890625	8761.828125	10246.0771484375	9978.4365234375	6961.638671875	14493.7578125	10630.4267578125	8082.578125	8757.3369140625	9523.76171875	12369.5810546875	12874.5	10444.9921875	13322.833984375	10511.6748046875	9688.5419921875	9515.5537109375	10460.30078125	10021.2900390625	8011.767578125	2122.0791015625	3522.447509765625	12231.5810546875	10248.4462890625	9550.6533203125	2675.083740234375	11334.4462890625	12450.2314453125	13447.396484375	16060.12890625	9659.91796875	11663.5966796875	11742.3017578125	11285.1357421875	13451.8212890625	11662.6884765625	12467.8291015625	13484.787109375	11987.2021484375	11082.857421875	11344.8232421875	12040.7939453125	13204.748046875	14131.482421875	13123.6005859375	16773.591796875	12108.6474609375	13389.1484375	12854.19140625	13520.830078125	12061.572265625	13446.3857421875	12988.3193359375	11362.2890625	11364.455078125	12555.580078125	13166.5693359375	8453.6298828125	16014.4658203125	12255.8515625	12300.703125	12882.5859375	13369.4501953125	14722.2255859375	10231.0791015625	10470.185546875	11608.2412109375	10882.1005859375	12847.5546875	11857.70703125	12726.9013671875	12804.2490234375	12578.2216796875	11568.7646484375	10273.9140625	11861.3359375	14097.1865234375	13856.39453125	13376.1953125	14084.7275390625	11323.802734375	13307.2666015625	12773.12890625	12672.408203125	12888.48828125	13387.431640625	12896.7001953125	10876.9306640625	11284.962890625	12123.236328125	12888.51171875	9030.6103515625	15219.3388671875	12354.353515625
90	120	16285.6044921875	18376.3515625	23054.53515625	23140.404296875	19954.9765625	24733.994140625	19816.6484375	15592.6416015625	18164.431640625	17112.38671875	12767.978515625	22346.96484375	18446.275390625	14000.1181640625	15861.1767578125	18175.3359375	22940.87109375	22419.095703125	20216.498046875	24821.62109375	20598.466796875	16857.724609375	14722.35546875	21318.751953125	17943.4296875	16609.205078125	3651.7578125	6346.88916015625	21863.330078125	18912.470703125	16482.197265625	4798.291015625	21621.197265625	22580.4140625	23593.34765625	28440.05078125	17053.5859375	21356.037109375	20594.01953125	20279.37109375	22961.900390625	21303.23046875	21888.75390625	24242.4921875	22228.220703125	20697.845703125	19485.45703125	22840.1953125	24563.77734375	24632.74609375	23849.47265625	29347.0078125	21754.111328125	23466.236328125	23289.931640625	24604.81640625	20574.9765625	24225.423828125	23296.89453125	20752.3046875	20333.634765625	22351.634765625	22691.056640625	15534.716796875	28239.66796875	21946.564453125	20669.6171875	23912.126953125	23612.34375	25111.396484375	16891.8203125	18780.40625	21117.755859375	19894.646484375	22945.310546875	21151.19140625	23364.216796875	22679.498046875	22832.58984375	20306.314453125	17167.55859375	21872.173828125	24584.685546875	25035.125	24115.15234375	25386.181640625	20697.607421875	24755.173828125	22476.4921875	23506.763671875	23529.0703125	24134.71875	23002.025390625	19912.56640625	19580.017578125	21986.947265625	23634.5703125	14859.8779296875	25739.30859375	21127.154296875
120	150	21977.3984375	24909.427734375	31666.6640625	31668.16015625	28336.744140625	35387.01171875	25689.23046875	20700.9140625	23168.42578125	21320.00390625	16647.65234375	30677.1796875	25417.59375	17816.369140625	21637.408203125	24332.013671875	31031.853515625	32152.498046875	29408.421875	33546.453125	26796.0	21954.197265625	21452.060546875	30420.412109375	23796.24609375	20834.552734375	4671.56298828125	8210.890625	29786.626953125	24282.822265625	21693.689453125	6297.59912109375	29515.306640625	29630.9296875	32055.66015625	38106.30078125	21909.87109375	28911.125	28102.16796875	28318.021484375	31485.7890625	28795.826171875	29474.6328125	33062.2890625	29603.00390625	27854.53125	26726.70703125	29794.705078125	32642.41796875	33607.265625	32406.8125	39934.58984375	29519.427734375	32758.87109375	31565.19921875	33971.7890625	28718.232421875	32622.20703125	31867.466796875	28780.47265625	26982.953125	30378.474609375	29888.208984375	21608.279296875	35230.7109375	28220.251953125	28070.638671875	32036.384765625	33012.58203125	33417.484375	22063.8671875	25920.23046875	29064.2890625	26879.8046875	29853.5625	29250.2734375	30167.177734375	31312.265625	31197.080078125	27933.60546875	24215.640625	29430.740234375	33639.5546875	32513.333984375	32174.6953125	33800.0625	28327.03515625	32375.7890625	30625.69921875	31827.58203125	31092.232421875	33204.87109375	31527.876953125	26670.857421875	27205.146484375	29573.349609375	33069.3671875	20894.978515625	33484.27734375	28468.833984375
150	180	24100.546875	27682.806640625	35294.078125	34892.0078125	30632.62109375	38744.8671875	28469.81640625	23266.857421875	25704.95703125	22983.49609375	18428.4921875	33572.16796875	25887.72265625	20880.83984375	23772.544921875	26603.2109375	33932.44140625	34429.578125	31494.78515625	37909.1484375	28709.013671875	24522.201171875	21719.298828125	32055.970703125	26245.990234375	22275.44921875	4823.4267578125	8726.486328125	32586.619140625	26601.048828125	22948.046875	6781.77587890625	32408.3671875	29926.08984375	35553.08984375	41184.1015625	24206.580078125	31487.609375	30987.646484375	31097.83984375	33845.15234375	31875.6875	31890.078125	35972.3125	31662.3671875	31169.416015625	27629.357421875	32904.25	35580.734375	35225.46484375	34991.77734375	43254.953125	33405.26171875	35003.2265625	34447.65234375	37010.1328125	29624.8984375	35979.10546875	34615.21484375	30305.951171875	29805.650390625	33212.69140625	32665.224609375	23322.8125	39173.82421875	31269.896484375	32549.232421875	34344.8984375	35127.546875	36201.98046875	23283.515625	28687.693359375	31379.048828125	29874.052734375	33907.66796875	32052.248046875	33391.3828125	34373.03125	33363.078125	30975.587890625	26352.775390625	32867.59375	36845.31640625	34974.90234375	34930.38671875	38330.8515625	30900.267578125	37032.03125	33306.55859375	35138.3359375	32910.234375	36379.09765625	34369.015625	29924.705078125	28666.662109375	32763.041015625	34384.28515625	20299.1015625	37436.0390625	29892.033203125
180	240	24419.060546875	27621.017578125	35114.953125	34766.14453125	31939.4453125	39005.22265625	30072.51953125	22855.31640625	24438.650390625	23238.296875	18030.75390625	34313.99609375	26581.97265625	19375.998046875	23822.7421875	26837.853515625	34034.4453125	34986.65625	32492.583984375	37919.3046875	30262.5	23609.298828125	23377.4921875	31655.970703125	26229.900390625	19763.3671875	4587.87353515625	8679.091796875	33694.57421875	27197.88671875	22443.20703125	6886.91796875	32318.951171875	31171.25390625	35732.796875	40480.015625	23071.216796875	31610.703125	31569.357421875	30668.521484375	32948.5625	31219.779296875	32335.359375	34667.87109375	32060.076171875	30937.349609375	27941.947265625	32683.46484375	34943.6953125	34628.890625	34295.9609375	41717.46484375	33158.265625	35025.96875	34440.2890625	36623.6171875	30748.57421875	35942.625	34114.8359375	30577.8359375	30090.138671875	33156.16796875	32386.09765625	23257.998046875	37154.05078125	31089.599609375	33064.23828125	33027.52734375	35306.96875	34993.90234375	23489.013671875	29155.283203125	31360.279296875	29853.845703125	33219.99609375	31502.447265625	33677.625	33663.14453125	33077.52734375	30333.484375	26659.560546875	32493.87890625	35863.8984375	34987.30078125	34221.54296875	36954.9609375	31133.271484375	36539.28515625	33152.078125	34931.26171875	32502.125	35878.0546875	33513.16796875	29924.95703125	28867.10546875	31902.19140625	34906.23828125	21058.306640625	35477.4609375	29569.46484375
240	300	23463.904296875	27357.466796875	33452.265625	33646.9765625	30697.955078125	37418.6484375	30102.80078125	21898.412109375	23760.01171875	23726.353515625	16986.017578125	34505.45703125	26497.669921875	18165.865234375	23151.853515625	25901.5625	32607.73828125	33480.2109375	30544.58203125	36691.62890625	29937.869140625	23094.8671875	22248.59375	32860.14453125	25731.318359375	21393.69140625	4324.7568359375	8467.6689453125	31962.029296875	25079.404296875	21045.080078125	6883.619140625	31299.09375	29576.037109375	33895.328125	36781.21484375	23205.59765625	29991.693359375	29647.271484375	29595.626953125	29999.833984375	29125.669921875	30618.728515625	32919.921875	30164.76953125	30001.62890625	27368.33984375	30711.251953125	33435.57421875	32699.57421875	32550.953125	37967.02734375	30873.921875	33803.1796875	32302.828125	34530.125	29750.591796875	34049.1875	32372.337890625	28876.43359375	28913.951171875	31947.138671875	30001.125	22511.458984375	34206.14453125	29928.646484375	30803.021484375	31281.041015625	33957.0234375	32755.607421875	22035.6015625	27758.296875	30098.974609375	29099.94921875	30248.513671875	29898.107421875	30802.74609375	31199.0	31923.798828125	29036.517578125	24364.396484375	30183.037109375	33821.01953125	32266.3515625	32311.080078125	34348.484375	29109.634765625	33731.109375	31365.486328125	32467.673828125	31949.107421875	34117.34375	31888.541015625	28507.693359375	27677.50390625	30861.8515625	32808.23828125	20964.416015625	33595.515625	28813.35546875
300	360	22610.701171875	25992.439453125	31501.765625	32539.8359375	28616.041015625	35149.46484375	28694.056640625	21000.58203125	23114.0	21282.55078125	16380.548828125	32026.228515625	24502.341796875	16550.08203125	22069.3203125	25007.294921875	30457.2109375	32213.572265625	29080.85546875	34328.75390625	27827.099609375	22107.0234375	21437.712890625	30266.51953125	24118.638671875	18046.12890625	4062.30517578125	8264.482421875	29502.82421875	24745.419921875	19536.86328125	6829.33837890625	29688.44921875	28697.265625	31209.201171875	34861.7890625	21641.193359375	28175.330078125	28067.021484375	27737.619140625	28035.466796875	27091.146484375	28566.626953125	30550.427734375	29211.3984375	28279.8515625	25139.75	28375.005859375	30849.8046875	29652.591796875	30532.279296875	34992.1015625	28739.240234375	31509.978515625	30276.7421875	32153.806640625	27355.546875	31777.244140625	30500.59375	27279.337890625	27199.603515625	29573.595703125	28217.951171875	21499.203125	32627.8046875	28544.36328125	28720.46875	29603.845703125	30580.515625	29796.693359375	21088.26953125	26497.697265625	28115.224609375	27593.5546875	28454.974609375	27371.169921875	29637.078125	28924.201171875	30100.716796875	27288.2109375	24439.68359375	29046.41796875	32029.490234375	30362.9921875	29852.8671875	31510.67578125	26954.9765625	31444.443359375	28745.517578125	30809.732421875	28915.224609375	31724.982421875	29584.626953125	26416.69921875	26484.3828125	27881.7421875	30378.146484375	20579.294921875	30820.876953125	26915.03515625
360	480	21161.0625	24374.787109375	28256.884765625	29525.763671875	26340.474609375	32497.888671875	26648.248046875	20093.119140625	22041.978515625	21629.798828125	15311.6142578125	28433.40234375	23052.984375	15376.9638671875	20787.017578125	23103.689453125	27493.8984375	29908.27734375	26090.2109375	32429.970703125	27396.60546875	20728.203125	21287.31640625	27276.5625	22861.642578125	15729.927734375	3822.73486328125	8018.6337890625	25924.169921875	22936.4921875	17620.6640625	6804.4501953125	27035.955078125	26550.431640625	27937.818359375	30181.673828125	21126.259765625	26493.908203125	25390.990234375	25810.92578125	25910.501953125	24462.666015625	26507.27734375	26997.615234375	26273.720703125	26164.607421875	24051.990234375	26715.486328125	28255.73046875	28124.13671875	28111.185546875	29823.7109375	26137.755859375	27794.89453125	27510.388671875	28867.921875	25645.59375	28892.880859375	27374.291015625	24733.51953125	25282.369140625	26795.27734375	25213.830078125	20834.9375	29335.35546875	26380.779296875	26809.166015625	26704.306640625	28082.6953125	26377.552734375	20489.033203125	24433.81640625	25509.896484375	25474.69140625	25148.302734375	25150.5	27146.767578125	25619.455078125	27844.650390625	24974.04296875	22404.296875	25859.4375	28248.9453125	27081.7265625	26429.341796875	27418.341796875	24347.701171875	28466.73828125	26430.2109375	27088.158203125	28184.404296875	28887.15234375	27204.9296875	23895.171875	24279.802734375	25455.99609375	28419.595703125	19413.3359375	27555.216796875	25285.275390625
480	600	19747.08203125	22745.681640625	25251.763671875	27397.3203125	23528.255859375	29649.09765625	25013.025390625	18691.744140625	20179.400390625	20652.072265625	14046.580078125	26677.494140625	22381.2109375	13626.0048828125	19508.810546875	21938.9921875	24495.93359375	27463.552734375	23493.333984375	28893.1640625	26530.509765625	19217.994140625	20767.61328125	25588.822265625	21907.7109375	14164.03515625	3599.33203125	7885.19873046875	23514.46484375	21300.537109375	15743.5546875	6844.0166015625	24207.048828125	23166.60546875	24803.0390625	26390.171875	19285.9375	23869.37109375	23002.359375	23642.869140625	23127.15625	21614.93359375	23185.890625	24181.86328125	24491.982421875	23942.736328125	21306.181640625	23148.62109375	24811.810546875	24360.138671875	25028.515625	25681.669921875	23891.591796875	25474.59375	24615.947265625	25235.654296875	23579.732421875	25598.92578125	24293.177734375	21830.576171875	23168.0234375	24151.509765625	21682.404296875	19676.19921875	25629.095703125	23933.1796875	24325.90234375	24786.984375	25198.91796875	23358.2109375	18953.771484375	22350.9453125	22904.609375	23332.2421875	23504.458984375	22601.162109375	24058.50390625	22990.89453125	24980.052734375	22900.412109375	20933.26171875	23121.779296875	25434.375	23762.990234375	23390.04296875	23346.013671875	22050.19140625	25551.712890625	23598.951171875	24376.42578125	24317.1484375	25461.123046875	23900.986328125	21455.484375	22411.376953125	23103.8359375	24321.67578125	18525.083984375	24165.060546875	22883.701171875
600	900	18216.912109375	20696.537109375	21321.0078125	23975.81640625	20332.6484375	25982.962890625	23699.46875	17071.8671875	18506.013671875	19205.66796875	12707.169921875	22699.81640625	20479.666015625	12179.6318359375	17978.47265625	19865.75390625	20742.87109375	24483.005859375	20490.466796875	24667.529296875	23817.291015625	17841.326171875	19820.48828125	22715.08984375	20180.03515625	13308.5810546875	3427.827880859375	7789.72705078125	20027.9609375	19667.03125	13510.9248046875	7014.0244140625	21399.044921875	20441.384765625	21522.5390625	22123.712890625	17358.765625	21027.494140625	19581.1875	20675.939453125	19476.787109375	18965.419921875	20062.5	20700.859375	21235.14453125	20859.578125	19533.146484375	19543.12109375	21626.587890625	21157.68359375	21733.998046875	21856.24609375	20331.81640625	21260.21484375	21351.015625	21475.376953125	20830.388671875	22020.099609375	20759.892578125	18794.720703125	20668.56640625	20580.662109375	18938.578125	18109.00390625	21866.45703125	21324.724609375	21011.154296875	20521.982421875	20822.87890625	19609.8671875	17396.173828125	19900.56640625	19452.9921875	20464.837890625	19451.3671875	19555.326171875	20878.193359375	19603.119140625	22049.353515625	19753.12109375	19393.14453125	19982.37890625	21573.05078125	20247.02734375	19959.580078125	19880.884765625	18717.34375	21995.09375	20041.4921875	20714.73828125	21127.55078125	21819.61328125	20656.41015625	18456.6015625	19727.91015625	19829.01171875	21236.494140625	16963.451171875	21821.396484375	20298.462890625
900	1200	17078.083984375	18852.8671875	17726.595703125	21205.6796875	17186.193359375	22009.392578125	20905.75	15526.9892578125	16730.916015625	16972.111328125	11595.09375	18725.07421875	18781.056640625	11044.3564453125	16739.060546875	18292.6953125	17280.666015625	20931.017578125	17735.265625	21198.115234375	21091.201171875	16253.548828125	17092.7109375	19083.423828125	18787.77734375	12715.689453125	3288.076904296875	7776.45703125	16620.822265625	17822.513671875	11868.36328125	7268.43212890625	18911.501953125	18129.392578125	18500.173828125	19086.8515625	16162.3671875	18600.248046875	16978.568359375	18307.33203125	17602.72265625	16401.498046875	17414.96875	17836.30859375	18470.99609375	18096.171875	17265.88671875	17224.65625	18510.783203125	18193.244140625	18532.109375	19077.134765625	17661.890625	18977.078125	18411.466796875	18566.087890625	17822.619140625	19035.39453125	17920.361328125	16477.685546875	17981.1328125	17945.029296875	17687.990234375	16094.66796875	19575.72265625	19001.81640625	18087.291015625	18342.115234375	18236.005859375	16918.37890625	15510.62109375	17520.572265625	16868.44921875	18185.951171875	17033.791015625	16995.587890625	18388.873046875	17080.900390625	18945.34375	17305.087890625	16706.27734375	17161.78125	18298.826171875	17692.6015625	17779.1875	17364.125	16180.408203125	18814.67578125	17388.529296875	18017.7109375	18584.01171875	18992.73046875	17659.5546875	15984.2431640625	17266.919921875	16993.65234375	17983.466796875	15117.185546875	18278.732421875	18244.5546875
1200	1500	16123.2509765625	17112.98828125	15149.0986328125	18232.5546875	15474.6962890625	19254.279296875	19981.197265625	13870.8076171875	14889.7177734375	15550.1298828125	10816.5859375	16977.5625	17368.2265625	10632.052734375	15774.345703125	16621.517578125	14802.869140625	18360.921875	15739.7265625	19025.373046875	20242.54296875	14312.1982421875	15010.2587890625	16887.314453125	17042.611328125	11744.0830078125	3243.122314453125	7693.73388671875	14291.3759765625	16295.6005859375	10677.533203125	7450.35986328125	17002.9296875	16171.1875	16711.037109375	16879.068359375	14619.693359375	16464.1328125	15162.8427734375	16404.58984375	15586.0380859375	14788.76171875	15978.1962890625	16179.2353515625	16114.73046875	16205.8466796875	15378.2099609375	15265.076171875	16992.044921875	16766.220703125	16693.9453125	17215.818359375	15717.9521484375	16515.521484375	16446.47265625	16581.33984375	16276.8896484375	17182.3125	16038.5302734375	14813.5400390625	16121.7607421875	16189.0263671875	15026.953125	15179.06640625	17424.255859375	17383.0390625	16640.12109375	16015.00390625	16306.283203125	14918.212890625	14821.5	15954.11328125	15158.5693359375	16394.2734375	15210.8857421875	15251.8349609375	16854.9609375	15144.865234375	17029.8671875	15629.130859375	15084.9208984375	15346.638671875	16597.728515625	16394.994140625	16071.5595703125	15919.0517578125	14617.82421875	17356.126953125	15488.802734375	16057.2626953125	16817.02734375	17021.490234375	15854.044921875	14146.732421875	15630.8427734375	15424.2890625	16451.8203125	13763.990234375	15569.828125	16163.751953125
1500	1800	15090.552734375	15688.5009765625	13013.4873046875	16273.921875	13419.3310546875	17171.224609375	18375.375	12565.9306640625	13452.4453125	13877.1513671875	9820.388671875	13805.580078125	15164.5380859375	9494.3427734375	14854.92578125	15246.6083984375	12619.9140625	15892.0224609375	13376.408203125	16698.751953125	17646.169921875	13142.6103515625	14669.4375	14416.654296875	15458.5947265625	11134.4189453125	3163.326904296875	7627.14013671875	11959.4111328125	15149.4658203125	9636.2109375	7555.55419921875	15477.630859375	14351.51171875	15008.8759765625	15192.7421875	12817.3896484375	14776.529296875	13633.8623046875	14837.150390625	14306.2490234375	13148.5947265625	14514.27734375	14571.521484375	14458.7509765625	14499.8642578125	13885.1025390625	13939.76953125	15171.681640625	16201.791015625	15522.9384765625	15704.26953125	14321.2197265625	15036.048828125	14847.6015625	14838.12890625	14708.5810546875	15552.96875	14274.3291015625	13198.556640625	14662.3056640625	14464.181640625	13123.2333984375	13677.7421875	16041.0302734375	15468.017578125	14860.1201171875	14811.44140625	14613.2744140625	13652.14453125	12858.71875	14202.4580078125	13686.3740234375	14843.7626953125	13906.6796875	13711.1416015625	15052.58984375	13554.64453125	15640.77734375	13942.365234375	13501.7197265625	13834.8173828125	15006.9765625	14831.9111328125	14369.912109375	14617.5302734375	13053.4609375	15441.751953125	14119.0380859375	14491.11328125	14995.478515625	15333.9970703125	14241.9873046875	12766.03125	14136.7470703125	13943.068359375	15086.3896484375	12237.7861328125	13822.509765625	14622.2041015625
1800	2100	14231.412109375	14105.353515625	11232.7685546875	13901.4833984375	11997.921875	15137.587890625	16823.30078125	11591.23046875	12032.83984375	12315.1201171875	9100.990234375	12416.0478515625	13742.1630859375	9049.4931640625	13890.2216796875	13857.5361328125	10977.2705078125	13992.140625	12075.2177734375	15094.5751953125	15918.4580078125	11747.4013671875	12228.7353515625	12059.439453125	14125.083984375	9389.4287109375	3065.121826171875	7546.3955078125	10503.4931640625	13515.638671875	8887.638671875	7609.025390625	13882.505859375	12946.9296875	13611.89453125	14045.724609375	11609.69140625	13512.220703125	12477.2138671875	13577.4052734375	13097.9794921875	12223.5791015625	13488.666015625	13226.8134765625	13500.236328125	13240.1630859375	12147.1484375	12444.9453125	13917.443359375	14552.8125	13917.2763671875	14729.845703125	12749.2578125	13777.96484375	13873.4658203125	13554.58203125	13021.3701171875	13899.1962890625	12736.89453125	11974.490234375	13288.115234375	13261.390625	12577.591796875	11883.0810546875	14386.1357421875	14153.8955078125	13238.5322265625	13296.953125	13223.2001953125	12267.314453125	11681.48828125	12769.0390625	12650.5	13302.7783203125	12907.4248046875	12690.2275390625	13701.3564453125	12552.130859375	13992.8759765625	12658.7060546875	11773.73046875	12286.080078125	13532.0888671875	13780.50390625	13081.396484375	12998.310546875	12151.2646484375	13913.2734375	12794.40234375	13086.451171875	13375.763671875	14026.2890625	12939.2666015625	11476.1826171875	12731.341796875	12617.2763671875	13712.109375	11285.3896484375	12862.728515625	12910.9716796875
2100	2400	13376.6943359375	12886.4384765625	9874.7734375	12467.857421875	11162.099609375	13322.384765625	15008.2373046875	10100.71484375	10669.8916015625	11427.8115234375	8514.5048828125	11374.41796875	12600.83203125	8561.0419921875	12959.30859375	12925.23046875	9576.3388671875	12060.94921875	10970.3916015625	12885.07421875	14621.1298828125	10417.33984375	11013.8203125	10881.82421875	12760.6416015625	9579.2998046875	2724.1083984375	7367.85009765625	9309.533203125	12512.2294921875	8318.9755859375	7603.72265625	12771.5654296875	12254.1640625	12457.0927734375	12278.4609375	10799.2548828125	12758.2587890625	11157.3955078125	12528.6357421875	12310.8857421875	11352.736328125	11815.302734375	12499.99609375	12230.7099609375	12083.1826171875	11549.439453125	11722.927734375	12545.7958984375	12508.298828125	12574.44140625	13095.9248046875	11613.525390625	12509.0390625	12447.8935546875	12535.5439453125	12368.9404296875	12700.5673828125	11766.0810546875	10860.10546875	12178.91015625	12009.763671875	11362.076171875	11386.4580078125	12856.01953125	12849.7978515625	12269.9208984375	12265.8056640625	12218.1669921875	11351.34765625	10741.9677734375	11898.4716796875	11463.3203125	12607.2236328125	11499.9501953125	11924.9873046875	12229.984375	11611.666015625	12576.677734375	11826.935546875	10823.169921875	11323.958984375	12570.65625	11791.8076171875	12117.7470703125	12603.81640625	11000.7978515625	12255.7685546875	11655.9423828125	11938.6337890625	11845.849609375	12980.513671875	11712.349609375	10384.646484375	11797.0634765625	11795.2724609375	11776.1767578125	10893.564453125	11751.6787109375	12008.0126953125
