frame_start	frame_end	parasubiculum	HATA	fimbria	hippocampal_fissure	HP_tail	presubiculum-head	presubiculum-body	subiculum-head	subiculum-body	CA1-head	CA1-body	CA3-head	CA3-body	CA4-head	CA4-body	GC-ML-DG-head	GC-ML-DG-body	molecular_layer_HP-head	molecular_layer_HP-body	Lateral-nucleus	Basal-nucleus	Central-nucleus	Medial-nucleus	Cortical-nucleus	Accessory-Basal-nucleus	Corticoamygdaloid-transitio	Anterior-amygdaloid-area-AAA	Paralaminar-nucleus
0	30	116.36617	48.75094	4.43741	65.32467	40.58425	88.21812	17.98735	19.76369	65.61439	55.56124	27.16613	38.57822	5.15815	45.89027	14.54758	56.48207	18.41334	52.30999	22.08753	38.90785	48.20627	32.572	19.42554	21.26881	37.92307	35.13014	114.66106	64.89894
30	60	4267.0152	3028.58138	3814.24468	3554.03482	2957.26522	3402.83495	4322.00631	2518.37029	3173.27406	2759.34796	2649.1062	3213.71584	3189.28188	3313.48499	3507.14335	3314.67023	3504.26874	2916.11947	3305.16823	2283.16155	3003.78601	2131.39042	2252.94534	2211.90154	2918.7654	3478.61457	6789.16804	2315.74368
60	90	10430.25185	9572.01182	11060.71472	10224.71372	10865.22328	10426.30694	12697.81055	9183.20357	9115.0849	8799.56363	7318.11244	8635.45055	9184.42712	9172.50469	9956.18598	9057.29503	10006.4216	9011.20788	9315.47575	7732.091	10383.4357	8682.964	9258.72439	9833.23919	11026.06578	11726.06263	13590.85085	9957.73444
90	120	16484.13666	15682.2358	18467.69005	17774.8489	16882.88197	18269.78694	19710.30273	17231.01641	17605.73494	15512.94642	13827.09674	17733.47373	17016.63691	16515.9123	18649.72999	16482.1139	18298.80733	16717.73832	17212.52646	14572.05331	15751.35366	13889.40216	14191.24826	14720.66805	14600.91367	14452.60303	17226.3502	17980.74118
120	150	21222.2442	22130.14252	25088.82838	22567.53992	22836.14236	22896.4421	24574.33611	20572.70592	25574.6719	19115.19395	19461.10325	21348.91746	22592.70171	23139.2607	24856.30647	21935.3188	24488.75438	21041.55548	23369.25304	19941.90518	21373.53028	19513.54728	20273.2053	22664.46391	23403.14256	23677.9011	25226.95147	20657.81842
150	180	19732.37699	23784.19419	27844.65631	23636.28178	27670.87672	22770.27687	27403.14844	22425.96486	25292.31938	22265.2461	21455.18948	25977.17885	24865.42311	23571.49586	26777.63316	22722.53504	26686.18183	23031.37217	25278.17421	22285.91643	21221.96383	21921.50868	22776.29644	22488.15336	22976.55536	22361.70736	19817.99361	22304.89704
180	240	21492.58345	20446.61539	25601.46418	24106.06995	26377.29328	25192.8001	24913.57989	24805.31246	25296.2241	20693.97015	20714.73369	25238.4251	23348.20321	25228.39284	25339.14497	23962.91557	25029.26231	23127.16195	23961.58354	23461.56557	24408.21999	24576.52893	24528.65864	23441.64793	23955.38688	20149.44838	21886.03717	21655.92768
240	300	19951.37231	17876.78626	25269.26263	23992.70365	24657.03982	24282.51296	23375.73055	24075.03427	25918.54402	21004.81314	23105.18153	21782.84725	22821.18786	24627.22497	24961.71799	23312.07637	24933.35632	23270.77228	24235.3838	22817.81133	23711.33592	21727.22179	22213.44944	22224.25705	21867.29345	19121.49157	18982.77607	23586.52243
300	360	19267.35216	17834.93904	24455.4466	23863.09958	22779.78493	23825.18452	23678.04972	24341.87409	23865.75507	20891.4682	19399.8969	21485.07326	20889.04307	23571.31937	22504.98567	22280.39742	22700.56968	22742.90326	21655.309	22215.30609	22751.40302	20681.03357	21405.01714	20266.53567	20567.87847	17788.68905	23468.99065	22223.44651
360	480	17909.1932	17428.04652	23698.04832	20913.78944	21019.28959	21873.40452	21335.78309	22380.54058	22431.66266	18850.84405	19526.09279	21089.83129	21533.17318	22014.18	22589.9332	20755.1355	22273.3069	21010.49122	21612.76305	21452.66389	22554.96979	21529.54342	21130.14692	21157.18597	20904.57566	17891.76189	20567.8344	21321.12093
480	600	17160.55564	15084.49871	20251.03308	20427.83947	18775.47644	20799.29456	19775.04649	21819.34562	21223.68983	18110.6276	18545.59519	17839.20108	19175.34938	20584.29018	20385.06448	19780.18504	20303.21157	19907.79723	19822.7941	21221.50778	21896.57327	19756.85938	19830.03928	20386.73098	20439.82163	17504.13839	19114.22929	20066.80698
600	900	16625.56667	15206.80213	18312.1978	18580.71458	17184.04586	19518.47512	17642.07554	19675.88219	19088.22401	17336.59667	17602.86757	17702.3719	17411.23739	18989.24451	18297.99139	18170.77468	18299.61994	18849.55429	18129.08032	20854.97158	20128.65898	19058.51731	19069.56532	19564.27692	19168.4925	16288.80287	18475.09032	19382.35698
900	1200	14375.0746	14126.23313	17687.19122	17040.7991	15401.62239	17946.6547	16304.18752	18309.76485	17346.54597	15803.5545	16195.09861	15169.40588	16430.78693	17101.66099	16860.4862	16629.13996	16912.86758	17092.70812	16616.03165	18196.17572	17255.04317	15922.91449	16746.97711	17082.0121	16454.50023	14531.46322	15445.65939	16983.56989
1200	1500	12924.7265	13480.11837	15229.23817	14916.40205	13848.57612	14837.07378	13928.07054	15411.97209	14737.89294	14205.14481	14305.25306	14162.58228	14686.64143	15806.91645	14383.94027	15190.39157	14353.85643	14803.12488	14354.0487	16109.42636	14632.09211	14611.70029	15940.19282	16203.04288	14435.35836	13047.94688	13739.95046	13541.76777
1500	1800	10807.26317	12729.2411	14986.0954	12753.07132	12600.77772	12718.71882	13532.29526	13888.12907	14362.74045	12963.77895	14118.24481	11545.33444	14602.23673	11894.84692	14305.08978	12075.94288	14305.94809	13002.19297	14231.45064	15779.24638	14299.66387	13925.5796	14618.95334	15234.33088	14392.28113	12597.60745	13435.01024	13352.67715
1800	2100	10282.79719	11439.17794	13249.53249	11657.11926	11438.4174	11699.46188	11705.27133	12492.88675	12911.55457	11321.67353	12533.60221	11107.26032	12771.1655	11341.45906	12598.30782	11541.71941	12650.9477	11588.38079	12547.73111	13303.17124	11581.45303	12630.0615	13821.18066	14378.92599	11173.05922	10571.47371	12020.19413	12116.71738
2100	2400	8880.78993	9622.52163	11393.58805	10309.39952	10313.57003	10506.95221	10706.7931	10412.49215	11044.81333	9830.071	10656.96723	11272.22454	11289.17448	10771.48379	10676.29476	10538.40409	10713.65099	10234.11852	10837.1636	11761.6987	10762.32862	11320.92287	11787.60102	12075.43253	10465.72216	9654.76081	10300.80336	9563.99863
2400	2700	8067.12766	9574.39203	11018.89549	9681.20087	9492.22348	8922.6615	9031.42334	10139.77135	10045.82459	9282.30129	10166.49651	9591.90046	10809.82749	10159.64168	10325.48105	9798.75737	10213.48852	9562.3954	10092.58134	10736.22828	8944.21138	10786.93314	11279.92589	10626.70525	9532.27236	8359.31046	7446.17233	8619.50017
2700	3000	7916.39799	9620.49729	9727.75191	8428.89681	8860.16856	8704.28312	8153.51686	9355.36791	9591.28246	8236.98831	9487.7534	8302.86572	9821.27363	8243.7596	9367.8063	8575.70735	9332.21159	8455.00628	9368.36796	9392.18711	8394.10776	9624.97895	10317.61664	10675.49775	9306.62048	8835.79157	7607.13135	8006.99177
3000	3300	7861.15087	8610.01679	8441.86132	8541.60721	7832.7641	7886.23328	7694.86831	8503.03683	8361.15025	8208.15976	9374.09295	7817.25955	9287.88071	8658.65993	8193.97193	8374.66542	8234.23914	8194.43328	8516.90326	8908.19009	7929.45366	7814.72353	8526.39334	8731.22675	7746.72073	7439.51108	7398.8931	7129.35981
3300	3600	6128.22102	7420.93737	8046.73797	7330.65084	7200.82626	6693.64984	7408.40086	7165.03008	8701.70296	7168.62772	9764.62353	7209.74983	8986.49821	6840.986	8509.79468	6937.06613	8594.97557	6855.72653	8915.14144	7724.89336	6166.86604	7791.41324	8300.40994	9073.81314	7325.29175	7033.95967	6329.94403	5660.29675
3600	3900	6512.43672	7778.0311	7584.63315	6330.69415	7701.73539	6614.93948	6201.07582	7590.64448	7470.34132	6474.28354	8521.20455	5712.36276	7946.13151	5642.2471	7225.67206	6325.19726	7268.20296	6222.99349	7577.31451	7190.5417	5556.54311	6778.04848	7326.20584	7391.59513	6420.38849	6673.90742	6995.03249	4932.41188
3900	4200	5237.12034	8103.50177	7041.65312	6067.03209	7070.63702	5630.25	6031.11109	6470.25947	7658.31965	6224.10124	8287.71878	6854.4082	8253.0658	5798.36485	7726.89534	6477.69602	7592.80931	5928.82731	7754.23585	6004.40044	5804.47483	6428.11076	6094.71582	5981.52705	5908.09659	6121.00296	5206.65823	6157.88645
4200	4500	3991.3886	7901.68182	6211.0202	5346.89015	6487.29232	4759.40809	6629.29297	5532.19649	6703.74105	5318.75445	7882.91847	6208.04559	6437.0904	5146.94045	6094.22997	5157.18741	6239.92146	5069.4894	6682.62696	6333.02683	4924.6365	7125.15572	7904.82346	9209.44538	6131.64557	5708.51992	5161.83621	4380.26915
4500	4800	5001.53759	5683.44812	4967.29007	4788.17582	5621.62522	4927.42373	5858.45508	5880.72087	5668.93998	5347.28836	6487.47855	4700.34063	5486.56158	4539.72236	5002.01061	4739.33011	5179.44471	5008.73333	5580.94074	6326.69724	5743.97502	5851.46277	6790.7653	7300.76533	5492.58461	5816.10125	5329.45281	6114.51381
4800	5100	5122.04761	6270.62984	5420.13507	5160.1613	5875.67253	5380.78216	5772.46176	6699.54939	6216.59584	5533.71649	6984.25774	5076.93758	5897.12565	4896.58006	5537.29644	5312.85846	5625.62635	5492.38262	6102.08303	5478.74545	4772.35313	9657.08376	10440.34749	7856.84485	5445.93823	4420.60492	6377.53646	3517.93232
5100	5400	6262.38415	4020.31174	5475.45061	6054.11582	4841.13955	5274.73394	5944.37666	6260.22285	5160.31724	5767.09713	5940.93542	5158.28753	6347.61396	5930.71664	5853.54336	6101.62579	5680.85451	5976.08336	5636.98	5562.02655	3842.31704	4707.14987	4984.11032	3786.01959	2874.38737	3275.44564	4568.6249	4125.43454
