frame_start	frame_end	Left-Cerebral-White-Matter	Left-Cerebellum-White-Matter	Left-Cerebellum-Cortex	Left-Thalamus	Left-Caudate	Left-Putamen	Left-Pallidum	Brain-Stem	Left-Hippocampus	Left-Amygdala	CSF	Left-Accumbens-area	Left-VentralDC	Left-choroid-plexus	Right-Cerebral-White-Matter	Right-Cerebellum-White-Matter	Right-Cerebellum-Cortex	Right-Thalamus	Right-Caudate	Right-Putamen	Right-Pallidum	Right-Hippocampus	Right-Amygdala	Right-Accumbens-area	Right-VentralDC	Right-choroid-plexus	AirCavity	Skull	Vermis	Pons	CSF-ExtraCerebral	Head-ExtraCerebral	ctx-lh-bankssts	ctx-lh-caudalanteriorcingulate	ctx-lh-caudalmiddlefrontal	ctx-lh-cuneus	ctx-lh-entorhinal	ctx-lh-fusiform	ctx-lh-inferiorparietal	ctx-lh-inferiortemporal	ctx-lh-isthmuscingulate	ctx-lh-lateraloccipital	ctx-lh-lateralorbitofrontal	ctx-lh-lingual	ctx-lh-medialorbitofrontal	ctx-lh-middletemporal	ctx-lh-parahippocampal	ctx-lh-paracentral	ctx-lh-parsopercularis	ctx-lh-parsorbitalis	ctx-lh-parstriangularis	ctx-lh-pericalcarine	ctx-lh-postcentral	ctx-lh-posteriorcingulate	ctx-lh-precentral	ctx-lh-precuneus	ctx-lh-rostralanteriorcingulate	ctx-lh-rostralmiddlefrontal	ctx-lh-superiorfrontal	ctx-lh-superiorparietal	ctx-lh-superiortemporal	ctx-lh-supramarginal	ctx-lh-frontalpole	ctx-lh-temporalpole	ctx-lh-transversetemporal	ctx-lh-insula	ctx-rh-bankssts	ctx-rh-caudalanteriorcingulate	ctx-rh-caudalmiddlefrontal	ctx-rh-cuneus	ctx-rh-entorhinal	ctx-rh-fusiform	ctx-rh-inferiorparietal	ctx-rh-inferiortemporal	ctx-rh-isthmuscingulate	ctx-rh-lateraloccipital	ctx-rh-lateralorbitofrontal	ctx-rh-lingual	ctx-rh-medialorbitofrontal	ctx-rh-middletemporal	ctx-rh-parahippocampal	ctx-rh-paracentral	ctx-rh-parsopercularis	ctx-rh-parsorbitalis	ctx-rh-parstriangularis	ctx-rh-pericalcarine	ctx-rh-postcentral	ctx-rh-posteriorcingulate	ctx-rh-precentral	ctx-rh-precuneus	ctx-rh-rostralanteriorcingulate	ctx-rh-rostralmiddlefrontal	ctx-rh-superiorfrontal	ctx-rh-superiorparietal	ctx-rh-superiortemporal	ctx-rh-supramarginal	ctx-rh-frontalpole	ctx-rh-temporalpole	ctx-rh-transversetemporal	ctx-rh-insula
0	30	10.510212898254395	16.976694107055664	8.670769691467285	8.285139083862305	26.23833465576172	12.953198432922363	47.61541748046875	12.346142768859863	20.800954818725586	10.275961875915527	8.269532203674316	87.16952514648438	21.548145294189453	4.980186939239502	14.00953197479248	14.586522102355957	16.3210391998291	15.523201942443848	21.495988845825195	28.912137985229492	53.492164611816406	48.21795654296875	40.4393424987793	17.391935348510742	26.000757217407227	9.151938438415527	13.307927131652832	20.138559341430664	15.537455558776855	7.0980048179626465	12.43471622467041	15.591780662536621	3.8576574325561523	20.711790084838867	3.317270040512085	4.518617630004883	47.755592346191406	11.18597412109375	12.018547058105469	15.479399681091309	3.2435142993927	11.35074520111084	12.889195442199707	10.242016792297363	19.37983512878418	12.063986778259277	6.6571173667907715	16.274171829223633	6.455991744995117	0.6378229260444641	11.629509925842285	6.053774356842041	7.811442852020264	5.005329608917236	8.561744689941406	3.9425418376922607	8.843646049499512	5.167351245880127	8.423016548156738	6.443225860595703	16.42889404296875	7.517186641693115	0.6592510342597961	29.597532272338867	14.075380325317383	14.723498344421387	6.647130966186523	27.423246383666992	7.219637393951416	3.7662901878356934	21.606693267822266	16.19041633605957	7.15656852722168	15.9866361618042	4.322109222412109	5.4912638664245605	45.171424865722656	12.04704475402832	35.951988220214844	10.774701118469238	22.822275161743164	15.266361236572266	14.313824653625488	29.192428588867188	26.551891326904297	10.359010696411133	22.96480941772461	11.689709663391113	20.112939834594727	13.225543975830078	5.212967872619629	7.099240779876709	16.701217651367188	21.210405349731445	14.315546989440918	10.946940422058105	5.600449562072754	10.542520523071289	20.10869789123535	34.1837158203125
30	60	1770.24072265625	1949.3387451171875	1625.9002685546875	2191.0224609375	2078.058837890625	2273.955810546875	1986.4560546875	1548.0848388671875	1972.5494384765625	2031.9564208984375	1966.729736328125	2951.788818359375	2670.4130859375	1949.11865234375	1796.162841796875	2184.72021484375	1704.9266357421875	2004.5252685546875	1886.52734375	2469.220458984375	1989.08203125	1719.8114013671875	1779.4088134765625	3393.9580078125	2199.59521484375	2095.77783203125	334.752685546875	820.6934814453125	2517.890625	1875.37548828125	1943.9654541015625	453.3515930175781	1303.8345947265625	2054.051025390625	2007.9029541015625	2543.23046875	2172.632568359375	1974.4136962890625	1996.597900390625	1535.9317626953125	1988.418701171875	1473.7808837890625	1881.450439453125	1846.374267578125	2408.850830078125	1353.003662109375	1214.4967041015625	2150.2646484375	2085.284423828125	1044.4097900390625	2140.347412109375	1984.67236328125	1876.3814697265625	1759.2808837890625	1967.6651611328125	2341.172119140625	2887.602783203125	2088.041015625	2074.27197265625	1772.2010498046875	1806.2540283203125	2426.99609375	1809.45556640625	1073.9825439453125	1923.814208984375	2150.9326171875	2588.81201171875	1879.143798828125	2062.641845703125	2779.843505859375	2382.884033203125	2030.2579345703125	2240.864501953125	1382.6148681640625	1964.1273193359375	1988.464599609375	2032.610595703125	2150.507568359375	2093.7041015625	1578.1292724609375	1564.41796875	2459.823486328125	2245.369873046875	1568.7589111328125	2262.955322265625	2148.251220703125	1995.0872802734375	1806.516845703125	2006.3873291015625	2571.5390625	2368.642578125	2084.69921875	2175.392578125	1825.14697265625	1927.9599609375	2203.067626953125	1995.1588134765625	1386.5233154296875	1759.3765869140625	2333.1171875
60	90	7838.7158203125	9647.056640625	7621.97705078125	9370.9931640625	8763.490234375	10341.849609375	8404.3671875	6394.9375	8186.3388671875	8428.8837890625	9136.080078125	11087.4716796875	8988.3515625	9157.2939453125	7956.38134765625	9253.01953125	7885.51025390625	10394.3212890625	9393.2568359375	10155.28515625	8708.2138671875	8079.14013671875	8389.1328125	10518.791015625	8469.47265625	9014.4775390625	1383.3536376953125	3526.878662109375	11050.0849609375	7540.41015625	8373.2080078125	2037.538330078125	7073.314453125	8341.927734375	9040.7763671875	11324.798828125	7882.498046875	9144.06640625	9108.1298828125	6356.736328125	8159.5556640625	6800.00439453125	6868.96533203125	8642.93359375	8985.4638671875	6434.984375	6674.5732421875	9282.8515625	9613.314453125	5608.74462890625	9311.3564453125	9515.2275390625	8706.18359375	6882.07958984375	8238.9091796875	10655.5673828125	11634.619140625	9733.3515625	9383.361328125	8377.7275390625	8136.880859375	10165.2919921875	7978.3134765625	5469.35791015625	8820.3466796875	9539.181640625	9473.333984375	6118.271484375	9013.3828125	12707.169921875	7392.9267578125	8899.80859375	10031.220703125	6152.08154296875	8029.66845703125	8749.869140625	7819.57958984375	10100.08984375	8253.994140625	6783.9423828125	7705.2626953125	9378.203125	9793.705078125	6820.91796875	9531.2998046875	10988.5908203125	8764.0830078125	7965.23291015625	8405.0478515625	10709.4248046875	10796.2861328125	9488.412109375	9414.7021484375	8405.6591796875	8220.0283203125	10184.8486328125	9233.591796875	6483.77783203125	7768.4580078125	8971.04296875
90	120	15267.173828125	18251.109375	14809.6796875	19377.50390625	17294.658203125	19960.525390625	17138.8828125	12073.126953125	15663.0830078125	15275.19140625	17475.896484375	18132.951171875	15280.98828125	18490.392578125	15476.140625	18123.541015625	14984.9453125	19966.1015625	17726.5390625	20003.34765625	17134.0078125	15209.0126953125	15775.7294921875	19162.974609375	15133.083984375	18489.740234375	2474.480224609375	6622.82421875	20346.853515625	14446.966796875	15988.5654296875	3915.10595703125	14924.5087890625	15023.2216796875	18383.27734375	23527.59375	11717.9560546875	18060.431640625	17582.990234375	11866.2958984375	15605.2099609375	13550.72265625	13347.5986328125	17203.044921875	17214.705078125	12695.6103515625	12975.1640625	17270.7890625	17402.650390625	10515.12890625	18748.505859375	18084.708984375	17049.5703125	13595.0478515625	16797.326171875	20340.96875	20812.19140625	18832.90234375	18177.251953125	15974.0966796875	15869.7900390625	19409.974609375	16073.16796875	10477.15234375	16368.68359375	16610.66015625	19095.2421875	12663.3125	17308.490234375	24508.51171875	11716.9169921875	17654.1796875	18769.85546875	11370.3779296875	16326.7802734375	16857.34765625	14462.68359375	18741.80078125	16243.1513671875	13775.951171875	15227.974609375	18731.453125	18411.267578125	13739.8720703125	19418.529296875	22080.482421875	17303.248046875	14902.4990234375	16598.00390625	20808.927734375	19675.267578125	18577.38671875	18031.33984375	16480.189453125	16739.265625	18835.24609375	18241.107421875	12541.8046875	16253.525390625	16306.1357421875
120	150	22264.5078125	26322.48828125	21404.30078125	27406.51171875	25122.3984375	29635.34375	23412.98828125	18017.009765625	22862.126953125	22478.9140625	25383.953125	22428.6171875	20279.8515625	26036.28125	22190.58984375	26787.337890625	22090.943359375	28769.451171875	25676.171875	28198.046875	23294.03125	22046.712890625	21446.306640625	23028.572265625	20998.615234375	28236.73046875	3434.7587890625	9689.7177734375	29026.833984375	20559.7265625	22911.544921875	5723.02392578125	22089.248046875	20373.646484375	26616.064453125	34596.76953125	14827.26171875	25939.193359375	26123.35546875	16915.96875	23775.046875	19678.421875	18796.49609375	24601.302734375	24395.74609375	18242.3828125	17618.478515625	24608.419921875	25878.10546875	15627.17578125	26259.810546875	27641.416015625	24473.42578125	20392.34765625	24031.732421875	30488.587890625	29619.341796875	27235.599609375	26295.267578125	24040.5078125	23773.466796875	27737.37890625	22944.74609375	16039.3310546875	24070.5703125	23959.818359375	26593.92578125	16204.9287109375	25213.021484375	34765.6953125	15779.76953125	25884.15625	27693.66015625	16201.3447265625	22629.955078125	23415.4375	20136.791015625	27952.8125	22561.529296875	19888.916015625	19592.505859375	27032.42578125	26384.841796875	19088.267578125	27097.34765625	31626.0	24460.78125	22431.125	23966.400390625	30496.46875	27844.587890625	27661.2734375	26493.337890625	24120.240234375	23707.751953125	27081.208984375	27222.41796875	17301.03125	22847.01171875	23167.349609375
150	180	24869.302734375	29511.404296875	23950.966796875	30931.34765625	28913.279296875	31877.4609375	24859.609375	18853.37890625	25329.037109375	23843.6796875	27488.4765625	24364.869140625	21042.607421875	29072.79296875	25034.587890625	29013.34765625	24490.787109375	32250.748046875	29386.72265625	32073.802734375	25303.841796875	24482.833984375	24005.88671875	25798.826171875	22768.9609375	31585.75390625	3583.44677734375	10463.724609375	32025.21875	22099.818359375	25358.783203125	6225.86474609375	25868.70703125	23796.353515625	30743.357421875	38298.4765625	14186.009765625	29060.240234375	29964.69140625	18255.7734375	26055.6953125	22286.80859375	20806.80078125	27340.1328125	26936.234375	20917.28125	19699.30078125	28741.119140625	28436.716796875	18012.3359375	29372.078125	30903.392578125	27632.169921875	22621.287109375	27134.654296875	34510.78515625	33708.40234375	30705.53515625	29844.775390625	27070.44921875	26105.1171875	31106.224609375	25115.150390625	18228.677734375	26784.41796875	25810.654296875	29678.88671875	20296.330078125	28452.21875	39139.26171875	16527.0625	29652.7421875	31011.20703125	17428.125	24864.373046875	25692.8203125	21233.140625	30238.015625	25251.54296875	22803.603515625	24019.28125	30638.04296875	29643.62890625	21775.908203125	29677.478515625	35130.18359375	28029.5	24018.98828125	26750.38671875	33423.12890625	31295.69140625	30715.880859375	29893.71484375	27093.083984375	27108.666015625	30556.015625	29643.33984375	20321.541015625	25457.84765625	25098.669921875
180	240	25188.599609375	28748.62109375	24660.853515625	31798.025390625	29954.923828125	32461.982421875	25268.646484375	18997.4921875	25428.81640625	22933.927734375	27226.666015625	26100.6796875	21210.0859375	29041.32421875	25195.58203125	29513.21875	24807.80859375	32996.79296875	29425.71484375	32505.87109375	25227.763671875	25421.248046875	25241.791015625	25040.673828125	21204.74609375	31033.35546875	3428.640869140625	10316.3828125	31899.83203125	21684.09375	25430.84765625	6301.3896484375	25623.369140625	24567.458984375	30599.759765625	38004.2578125	13745.1533203125	29145.3984375	30193.3515625	18283.8671875	25353.21484375	22568.61328125	20857.392578125	27915.4921875	26698.646484375	21426.404296875	20362.06640625	29049.15625	28229.482421875	17875.373046875	29419.521484375	31586.39453125	27925.943359375	22703.0546875	27676.529296875	34274.18359375	33081.91015625	30922.408203125	29996.1484375	27850.791015625	27020.255859375	31383.353515625	26299.287109375	18284.76953125	27037.580078125	26923.87890625	30622.2890625	19509.421875	28667.884765625	39040.70703125	15944.3486328125	29196.0625	31699.74609375	17682.423828125	24286.91796875	25188.900390625	21890.908203125	30015.72265625	25957.744140625	23335.943359375	24269.650390625	29843.392578125	30197.083984375	22565.58203125	30727.83984375	35412.24609375	28491.59375	24210.181640625	27504.232421875	34215.6953125	31353.021484375	31044.5	30229.150390625	27761.287109375	27059.927734375	30472.2734375	29471.322265625	21347.986328125	25938.841796875	25301.908203125
240	300	24301.60546875	27780.107421875	23945.796875	30568.275390625	29740.70703125	32723.251953125	25346.8828125	18515.380859375	24364.146484375	23304.62109375	26178.04296875	23669.3203125	21758.212890625	27871.8125	24360.525390625	28167.70703125	24135.7734375	32341.0625	28630.283203125	31428.1640625	24564.404296875	24956.17578125	24381.974609375	23697.43359375	20645.474609375	30319.55859375	3339.80029296875	9922.5673828125	31643.47265625	21120.220703125	24309.669921875	6309.068359375	24582.375	24501.470703125	29447.4609375	35189.16015625	14354.7939453125	27718.271484375	29143.583984375	18059.947265625	24141.419921875	22620.39453125	20966.818359375	26017.560546875	26483.15234375	21231.017578125	20442.943359375	27424.552734375	27554.361328125	18802.9453125	28711.39453125	30860.0234375	27385.166015625	22941.037109375	26773.93359375	32688.2109375	32418.02734375	30055.59765625	29235.224609375	27060.59375	26487.25	30250.451171875	26141.46875	18102.171875	27348.9765625	25483.861328125	28885.51171875	19719.98828125	28153.423828125	35289.19140625	15588.484375	28040.919921875	30256.41796875	17601.00390625	24005.001953125	24560.984375	21499.244140625	28168.615234375	25521.072265625	22841.267578125	23349.85546875	29158.1875	28737.408203125	22176.58203125	29434.1484375	32484.1953125	27153.857421875	23596.33984375	26884.1640625	32232.509765625	30378.708984375	30400.44921875	29518.72265625	27463.50390625	26236.857421875	29163.578125	29519.4921875	20966.513671875	25661.31640625	25657.20703125
300	360	23020.89453125	25590.697265625	23275.568359375	29889.423828125	26968.87109375	30064.3671875	24801.30859375	18137.95703125	23947.947265625	22964.65625	23647.009765625	23355.4140625	20339.474609375	26037.38671875	23045.12890625	26332.03125	23438.66796875	31567.17578125	27694.10546875	30903.55859375	25146.537109375	24031.431640625	23116.94140625	24290.205078125	20169.76953125	27017.50390625	3137.864013671875	9454.708984375	29373.736328125	21010.501953125	22510.5	6184.92529296875	22706.078125	22254.830078125	27449.59375	31960.49609375	13263.6943359375	26311.65234375	27608.1640625	17835.65234375	24249.287109375	21253.3359375	20032.40234375	25519.46484375	24211.291015625	20537.421875	19598.34375	26481.1953125	26200.396484375	18713.3828125	27285.541015625	28862.1953125	25635.48046875	20883.025390625	25426.638671875	30701.4921875	29904.890625	28485.634765625	27856.853515625	25600.626953125	24964.498046875	27732.185546875	23861.369140625	18211.001953125	25726.326171875	24727.419921875	28094.318359375	19404.140625	26512.177734375	32962.35546875	15245.9609375	26662.642578125	28267.716796875	17433.70703125	22532.74609375	23368.701171875	20874.17578125	26692.267578125	24173.552734375	22193.572265625	22175.458984375	27026.958984375	27018.419921875	21803.447265625	27606.111328125	30965.91796875	26058.248046875	23106.9296875	25381.388671875	30251.27734375	28379.21484375	28692.689453125	28018.703125	25710.650390625	25055.705078125	27631.720703125	26991.859375	21087.65625	25204.45703125	24222.896484375
360	480	21060.78515625	23632.48828125	21579.310546875	28075.48046875	24994.216796875	28729.283203125	23508.720703125	17415.544921875	21944.076171875	22257.53125	20538.3984375	21534.31640625	18836.955078125	22441.861328125	21131.751953125	23870.005859375	21726.482421875	29679.029296875	25233.046875	28511.068359375	23912.1171875	22469.421875	22293.005859375	22751.96484375	19013.71875	24575.20703125	3037.297119140625	8856.6025390625	25769.693359375	20180.064453125	19865.216796875	6137.10595703125	21500.15625	21845.21484375	25353.359375	27772.1171875	13464.818359375	23576.37109375	24947.998046875	17261.568359375	21295.267578125	19795.79296875	19538.76171875	22788.25	23296.529296875	19915.369140625	18222.798828125	23397.447265625	23602.330078125	18191.99609375	24194.48046875	25296.37890625	23192.94921875	20925.27734375	23242.07421875	27193.76171875	26928.333984375	25934.8046875	24939.494140625	23201.37109375	23264.26171875	25112.818359375	22494.77734375	17427.3203125	24069.416015625	22677.97265625	25220.90625	19519.92578125	23977.486328125	27775.8515625	14063.4951171875	23611.28515625	25611.51953125	16527.55078125	21104.193359375	21154.978515625	19844.166015625	23689.61328125	22489.3515625	20878.369140625	20753.955078125	23679.498046875	24656.90234375	20458.517578125	24792.671875	27684.77734375	23333.4296875	21560.41796875	23403.294921875	26560.013671875	25106.126953125	25841.2265625	25206.078125	23505.171875	22805.7734375	24771.345703125	25054.291015625	19351.0703125	22890.5625	22228.6015625
480	600	18711.005859375	20578.5625	19242.072265625	25457.72265625	22284.896484375	25704.59375	22161.099609375	16255.9755859375	20190.2265625	20437.056640625	17213.185546875	19700.341796875	17419.57421875	19056.412109375	18748.5	21038.2890625	19281.044921875	26075.22265625	22908.98828125	25080.58984375	22175.55859375	19959.634765625	21132.220703125	18864.85546875	17831.568359375	20308.29296875	2866.1025390625	8218.5302734375	21661.5546875	18306.498046875	16685.5	5994.759765625	19156.224609375	19431.45703125	22281.849609375	23427.666015625	12308.57421875	20226.169921875	21158.779296875	16353.810546875	18632.953125	17612.517578125	17866.201171875	19986.64453125	20648.01171875	18262.888671875	16495.525390625	19488.322265625	20807.705078125	16709.80859375	21198.357421875	22439.423828125	20150.7890625	18328.89453125	20639.517578125	23117.212890625	23349.603515625	22547.73046875	21702.82421875	20644.75	20840.4765625	21492.625	19979.962890625	16906.673828125	21919.912109375	20731.59375	21778.74609375	17743.224609375	21112.7265625	23260.525390625	13485.693359375	20806.021484375	21992.708984375	15406.8583984375	18604.814453125	18930.07421875	17435.16796875	20306.27734375	19980.791015625	18658.876953125	18248.478515625	20649.5234375	21178.818359375	18128.494140625	21226.12890625	22816.625	20145.48046875	19923.01953125	20370.794921875	22415.751953125	22160.736328125	22835.689453125	21910.25390625	20318.287109375	20340.18359375	21434.755859375	21160.646484375	18286.87890625	21009.388671875	20045.0
600	900	15938.7236328125	17163.3359375	16043.81640625	21023.416015625	18225.998046875	21543.119140625	19602.3125	14292.65234375	17143.763671875	17311.388671875	13047.107421875	17091.962890625	16127.0224609375	13731.0224609375	15975.0341796875	17420.353515625	15997.029296875	22011.68359375	18343.587890625	20492.17578125	19826.041015625	17040.771484375	17552.185546875	17276.04296875	16342.490234375	14559.69921875	2693.017333984375	7504.09130859375	16874.3203125	16436.19140625	13013.81640625	5867.92529296875	17378.087890625	17125.361328125	18019.41796875	18613.96875	11824.62109375	16714.568359375	17250.265625	15111.5009765625	15727.57421875	15162.31640625	15830.798828125	16857.380859375	17072.919921875	15911.5869140625	13993.02734375	16048.146484375	17057.498046875	15472.9208984375	17181.5390625	17872.376953125	16498.69140625	16716.65234375	17198.18359375	18511.23828125	18608.6171875	18533.17578125	17748.119140625	16978.828125	17148.85546875	17375.576171875	16764.5546875	15558.46484375	18390.115234375	17438.14453125	17967.439453125	16427.45703125	17465.3125	18375.134765625	12893.716796875	17017.388671875	17921.333984375	14147.10546875	15700.8388671875	16039.2548828125	15509.537109375	16480.787109375	17090.669921875	15990.9521484375	15342.541015625	16855.267578125	17382.8046875	15982.71484375	17301.228515625	18271.078125	16573.5859375	17274.671875	17189.650390625	17930.109375	18638.82421875	18437.408203125	17914.259765625	16944.501953125	16867.75	17240.548828125	17869.767578125	16143.7001953125	17861.28125	16949.970703125
900	1200	13733.794921875	14485.390625	12590.5166015625	16647.60546875	13730.2314453125	16884.75	17625.3203125	12355.5517578125	14108.06640625	14425.5849609375	9678.626953125	14833.1552734375	14255.7744140625	9972.408203125	13735.6103515625	14586.6181640625	12564.38671875	16907.435546875	13965.19921875	16230.533203125	17827.109375	13529.5458984375	14683.8115234375	14909.751953125	14548.296875	10247.71875	2722.741943359375	7165.50830078125	11967.552734375	14906.4619140625	9831.970703125	5899.7607421875	14630.4296875	14085.9560546875	14547.4609375	15089.1787109375	11107.2958984375	14037.8837890625	13591.943359375	13586.3408203125	13185.8046875	12919.90625	13510.900390625	13980.6025390625	14179.4619140625	13655.1611328125	12202.8701171875	12795.142578125	14103.0068359375	13651.7802734375	13943.21875	14340.3251953125	13058.5390625	14048.244140625	13695.451171875	14418.59375	14977.0234375	14916.3564453125	13997.435546875	13455.634765625	14107.8447265625	13556.974609375	14038.1494140625	14003.953125	14846.384765625	14479.2548828125	14546.0322265625	13698.208984375	13756.1533203125	14677.2890625	12293.701171875	14203.4091796875	13961.9638671875	13130.23828125	13501.865234375	13614.552734375	13325.2265625	13657.814453125	14197.896484375	13594.02734375	13268.712890625	13053.3935546875	13555.0517578125	13580.244140625	13660.5830078125	14572.9736328125	13122.861328125	14473.3779296875	13742.0146484375	13920.1611328125	14661.744140625	14697.2900390625	13938.6630859375	13108.90625	13709.3974609375	13815.1337890625	14778.1611328125	13986.7490234375	14392.82421875	14220.6015625
1200	1500	12614.59375	12957.0234375	10557.2802734375	13556.6337890625	11196.1640625	14395.5673828125	15570.884765625	11193.45703125	12235.458984375	12162.8935546875	8315.244140625	12416.3583984375	13092.08203125	8023.50927734375	12587.0517578125	13069.9970703125	10511.953125	13894.0419921875	11820.1328125	13961.412109375	15808.974609375	11487.080078125	12269.5341796875	12288.779296875	12997.55078125	8573.89453125	2826.156005859375	7121.77197265625	10039.607421875	13205.7998046875	8460.73828125	6034.20361328125	12722.619140625	12497.451171875	12392.423828125	12959.57421875	10512.4677734375	12772.37109375	11534.88671875	12575.3857421875	11928.744140625	11589.2158203125	12282.1171875	12637.486328125	12401.4658203125	12355.1455078125	11259.6708984375	10642.2705078125	12552.087890625	12559.9267578125	12398.01171875	12700.1796875	11001.462890625	12377.044921875	11700.4521484375	12385.2548828125	12710.630859375	13192.765625	11855.091796875	11153.38671875	12234.763671875	11903.736328125	12093.130859375	12320.7158203125	12616.505859375	12760.2431640625	12856.4990234375	12406.72265625	11673.474609375	12225.392578125	11285.439453125	12907.5166015625	11904.72265625	12032.533203125	11664.087890625	12161.818359375	12234.43359375	12333.8212890625	12904.1044921875	12027.51953125	11919.8837890625	11134.4951171875	11862.99609375	12112.8662109375	11899.4326171875	12987.1796875	11109.677734375	12698.375	11419.72265625	11807.73046875	12994.236328125	12915.837890625	11779.8232421875	10891.375	11764.642578125	11674.84375	13364.5390625	12209.10546875	12451.974609375	12492.0185546875
1500	1800	11780.6669921875	12001.623046875	9168.71484375	11525.4287109375	9709.1328125	12524.0302734375	14053.7685546875	9747.4765625	10630.6865234375	11594.40234375	7606.49267578125	11664.5732421875	12160.48828125	6997.11962890625	11749.6044921875	11861.3583984375	9054.78515625	11742.546875	9986.3076171875	12083.001953125	13608.1318359375	10517.7724609375	11022.6552734375	11528.853515625	12484.0615234375	7951.73974609375	3033.501953125	7184.3828125	8374.8369140625	12051.8828125	7781.18603515625	6247.20556640625	11853.9833984375	10945.3759765625	10796.9033203125	11682.1533203125	9827.3828125	11946.60546875	10484.0439453125	11920.8291015625	11092.7080078125	10716.3955078125	11503.8427734375	11649.111328125	11354.765625	11145.0390625	10288.2626953125	9761.181640625	11321.7294921875	11498.85546875	11306.43359375	12059.9443359375	9652.8974609375	10960.5712890625	10396.181640625	11157.29296875	11014.8935546875	11894.8232421875	10362.298828125	9744.400390625	10901.1953125	10717.31640625	10908.82421875	11186.177734375	11923.68359375	11635.8837890625	11537.0126953125	11435.4208984375	10303.693359375	11107.47265625	10734.5859375	11791.6943359375	10593.291015625	11360.1806640625	11073.6748046875	11163.1328125	11071.2939453125	11400.1318359375	11452.96875	10918.439453125	11146.0537109375	10131.73828125	10911.8818359375	11194.2333984375	10990.7373046875	11912.681640625	9891.9072265625	11163.2763671875	10147.9853515625	10704.025390625	11058.4384765625	11455.3896484375	10186.6064453125	9517.236328125	10580.326171875	10403.6298828125	11554.39453125	11192.8681640625	11408.740234375	11378.8515625
1800	2100	10962.7080078125	10496.2138671875	8058.3701171875	9864.4658203125	8234.6376953125	11163.662109375	12147.8876953125	9032.7392578125	9404.865234375	9320.7890625	7139.2587890625	9450.3466796875	10632.677734375	5886.66748046875	10914.28515625	10422.990234375	7978.01806640625	10088.0126953125	9107.0927734375	10903.044921875	12104.7333984375	9577.068359375	9612.0732421875	9364.8173828125	11360.4951171875	6947.98876953125	3063.87646484375	7176.10400390625	7292.392578125	11091.6748046875	7294.5517578125	6257.57958984375	10782.814453125	9724.2958984375	9711.359375	10634.681640625	9193.87109375	10912.4189453125	9613.1396484375	10940.0703125	10191.3974609375	9811.140625	10529.298828125	10657.3837890625	10219.017578125	10176.8623046875	9550.91015625	8577.4345703125	10288.515625	10514.02734375	10501.44140625	10970.439453125	8698.7900390625	10084.58984375	9340.7119140625	10146.201171875	10309.0048828125	10702.578125	9097.998046875	8683.912109375	9893.1748046875	9793.6064453125	10203.0048828125	10290.5947265625	10695.3125	10773.408203125	10561.533203125	9816.7548828125	9198.7861328125	9942.9140625	10209.2705078125	10906.82421875	9734.6318359375	10549.1884765625	10079.6865234375	10263.521484375	10374.6181640625	10523.0771484375	10315.5380859375	9924.8896484375	10214.19140625	9125.138671875	9919.8125	10061.8544921875	9760.8779296875	11145.44140625	8808.1240234375	10147.16796875	8896.8701171875	9503.4208984375	10239.6865234375	10530.453125	9188.451171875	8545.8828125	9539.375	9330.3427734375	10941.462890625	9835.390625	10139.1572265625	10201.46484375
2100	2400	10268.3232421875	9577.890625	7278.63623046875	8667.1181640625	7850.91357421875	10263.1826171875	11124.150390625	7948.0869140625	8637.1298828125	8842.0185546875	6991.49462890625	8400.763671875	9589.6630859375	6010.3427734375	10195.8564453125	9408.7255859375	7305.7333984375	8607.2041015625	8172.7373046875	9586.275390625	10662.59765625	8639.693359375	8872.224609375	8002.88427734375	10182.60546875	6308.51513671875	3192.679443359375	7113.384765625	6875.5419921875	9798.09765625	7087.8857421875	6239.34326171875	9996.7685546875	9068.5888671875	8808.646484375	9520.462890625	8243.15625	10281.32421875	8921.052734375	10357.6728515625	9357.5556640625	9211.2861328125	9978.666015625	9959.7451171875	9480.7216796875	9633.8251953125	8565.4794921875	8153.77734375	9539.22265625	10472.1787109375	9790.2021484375	10092.798828125	7909.77783203125	9321.5732421875	8582.3701171875	9388.72265625	9017.1708984375	9872.130859375	8252.9111328125	8033.32177734375	9021.1533203125	9089.140625	9168.994140625	9597.73828125	9450.0361328125	9869.3818359375	9761.255859375	9097.009765625	8275.6953125	9017.9619140625	9322.169921875	10449.158203125	8888.947265625	10028.8505859375	9196.83203125	9857.9638671875	9826.2431640625	9858.2099609375	9501.8701171875	9289.4853515625	9693.4228515625	8145.7177734375	9218.7548828125	9438.458984375	9174.3173828125	10579.2724609375	8166.0078125	9111.9033203125	8175.453125	8699.3203125	9527.3408203125	9556.392578125	8262.5390625	7737.021484375	8643.4306640625	8887.7314453125	9841.791015625	8911.4326171875	9146.8701171875	9478.34375
