frame_start	frame_end	Left-Cerebral-White-Matter	Left-Cerebellum-White-Matter	Left-Cerebellum-Cortex	Left-Thalamus	Left-Caudate	Left-Putamen	Left-Pallidum	Brain-Stem	Left-Hippocampus	Left-Amygdala	CSF	Left-Accumbens-area	Left-VentralDC	Left-choroid-plexus	Right-Cerebral-White-Matter	Right-Cerebellum-White-Matter	Right-Cerebellum-Cortex	Right-Thalamus	Right-Caudate	Right-Putamen	Right-Pallidum	Right-Hippocampus	Right-Amygdala	Right-Accumbens-area	Right-VentralDC	Right-choroid-plexus	AirCavity	Skull	Vermis	Pons	CSF-ExtraCerebral	Head-ExtraCerebral	ctx-lh-bankssts	ctx-lh-caudalanteriorcingulate	ctx-lh-caudalmiddlefrontal	ctx-lh-cuneus	ctx-lh-entorhinal	ctx-lh-fusiform	ctx-lh-inferiorparietal	ctx-lh-inferiortemporal	ctx-lh-isthmuscingulate	ctx-lh-lateraloccipital	ctx-lh-lateralorbitofrontal	ctx-lh-lingual	ctx-lh-medialorbitofrontal	ctx-lh-middletemporal	ctx-lh-parahippocampal	ctx-lh-paracentral	ctx-lh-parsopercularis	ctx-lh-parsorbitalis	ctx-lh-parstriangularis	ctx-lh-pericalcarine	ctx-lh-postcentral	ctx-lh-posteriorcingulate	ctx-lh-precentral	ctx-lh-precuneus	ctx-lh-rostralanteriorcingulate	ctx-lh-rostralmiddlefrontal	ctx-lh-superiorfrontal	ctx-lh-superiorparietal	ctx-lh-superiortemporal	ctx-lh-supramarginal	ctx-lh-frontalpole	ctx-lh-temporalpole	ctx-lh-transversetemporal	ctx-lh-insula	ctx-rh-bankssts	ctx-rh-caudalanteriorcingulate	ctx-rh-caudalmiddlefrontal	ctx-rh-cuneus	ctx-rh-entorhinal	ctx-rh-fusiform	ctx-rh-inferiorparietal	ctx-rh-inferiortemporal	ctx-rh-isthmuscingulate	ctx-rh-lateraloccipital	ctx-rh-lateralorbitofrontal	ctx-rh-lingual	ctx-rh-medialorbitofrontal	ctx-rh-middletemporal	ctx-rh-parahippocampal	ctx-rh-paracentral	ctx-rh-parsopercularis	ctx-rh-parsorbitalis	ctx-rh-parstriangularis	ctx-rh-pericalcarine	ctx-rh-postcentral	ctx-rh-posteriorcingulate	ctx-rh-precentral	ctx-rh-precuneus	ctx-rh-rostralanteriorcingulate	ctx-rh-rostralmiddlefrontal	ctx-rh-superiorfrontal	ctx-rh-superiorparietal	ctx-rh-superiortemporal	ctx-rh-supramarginal	ctx-rh-frontalpole	ctx-rh-temporalpole	ctx-rh-transversetemporal	ctx-rh-insula
0	30	244.22305297851562	242.1451873779297	321.14923095703125	364.6980895996094	259.2638854980469	393.8392333984375	207.6492462158203	347.5216064453125	362.41802978515625	322.5267639160156	240.0266876220703	223.00830078125	455.143798828125	243.06712341308594	250.64300537109375	306.87664794921875	321.3970947265625	231.64822387695312	168.44259643554688	318.1084289550781	367.1564025878906	388.5259704589844	275.2061462402344	181.86912536621094	254.3709259033203	226.57119750976562	152.5228271484375	297.462158203125	248.2781524658203	316.7656555175781	282.55645751953125	168.07492065429688	276.8318786621094	459.2890625	330.5471496582031	285.59979248046875	366.2763977050781	260.55792236328125	249.02406311035156	208.17420959472656	290.6947021484375	210.7679443359375	338.692626953125	286.10455322265625	397.0661926269531	302.3121032714844	290.2264099121094	355.2674255371094	358.5637512207031	384.33642578125	306.8776550292969	230.02593994140625	260.58349609375	270.86480712890625	254.15843200683594	321.488037109375	632.6248779296875	405.6305847167969	370.877685546875	292.6297607421875	422.5570068359375	346.6213073730469	402.6580810546875	356.8801574707031	480.8673400878906	416.35205078125	490.7406005859375	327.48284912109375	262.3841552734375	329.4309387207031	300.021240234375	304.4103088378906	270.5447692871094	339.4111633300781	406.5481872558594	253.30999755859375	401.3365478515625	339.0909423828125	368.31005859375	337.4801330566406	464.1439514160156	308.73187255859375	376.2277526855469	241.7256622314453	385.4245910644531	222.8868408203125	337.2580871582031	453.9828186035156	285.3868408203125	306.46038818359375	692.1884765625	317.3994140625	360.5360412597656	302.5271911621094	467.0899963378906	312.21258544921875	356.5114440917969	355.9822998046875	686.9085693359375	647.2736206054688
30	60	4647.69873046875	4945.8681640625	6173.61181640625	6032.32861328125	5690.51025390625	6624.18359375	4174.10107421875	4953.9150390625	4914.70751953125	4763.01708984375	3842.19580078125	5502.89111328125	4935.6904296875	3884.048828125	4664.681640625	4805.45166015625	6144.73583984375	6338.060546875	5783.43408203125	6644.9462890625	4078.28271484375	5569.451171875	4737.0498046875	6060.68115234375	5334.884765625	5269.12158203125	1381.79443359375	1744.130859375	6624.55322265625	5030.44287109375	4723.7119140625	1266.211669921875	6082.5400390625	7985.44580078125	6854.5	7500.677734375	4181.87255859375	5956.3837890625	5831.5732421875	5468.83251953125	7177.22119140625	5903.78466796875	6537.314453125	7597.52392578125	7080.744140625	5801.052734375	5706.13671875	6447.03466796875	6708.60546875	7024.64892578125	6581.591796875	6333.599609375	6015.521484375	7260.2138671875	6283.37158203125	6778.30517578125	7250.349609375	6764.5615234375	6662.732421875	6206.28955078125	6249.00390625	6077.1044921875	7667.2734375	5076.4150390625	8677.0625	6786.4111328125	6557.65283203125	7280.474609375	5833.29345703125	6820.1474609375	4328.73828125	5919.52001953125	5803.72900390625	5806.57568359375	7238.06982421875	6183.11865234375	6361.31884765625	7274.05126953125	6237.26904296875	5518.45361328125	6158.896484375	6283.619140625	6197.734375	6760.869140625	6238.26220703125	7105.79541015625	6310.6142578125	7492.0146484375	5851.07763671875	6677.025390625	6829.9638671875	6323.853515625	6343.9560546875	5974.23779296875	6408.189453125	6114.71484375	7385.74658203125	5382.517578125	8237.2490234375	7054.94482421875
60	90	11985.9541015625	12571.9228515625	15247.3857421875	14838.255859375	14418.6494140625	17548.26171875	12439.6748046875	11253.97265625	12881.0146484375	12608.6015625	9054.3251953125	14065.7880859375	12718.7626953125	8953.021484375	11873.2236328125	12748.1015625	15069.5810546875	15752.9541015625	14620.4697265625	17141.0546875	13278.646484375	13427.6513671875	11037.2822265625	14526.7998046875	11858.9921875	11012.2529296875	3204.807373046875	4213.357421875	16789.927734375	12514.1220703125	11376.8154296875	3072.945556640625	16128.5048828125	18371.205078125	18431.08984375	19494.28515625	12620.728515625	14672.009765625	14722.7314453125	14049.2998046875	17621.921875	15137.556640625	15948.21875	18830.630859375	16480.861328125	14815.8916015625	14609.7763671875	16071.689453125	17148.03515625	18001.02734375	17775.474609375	18933.287109375	15955.8212890625	18017.43359375	16400.16015625	18225.59375	16964.302734375	16818.099609375	16499.9453125	15851.9794921875	15621.0517578125	15716.5537109375	17269.0546875	13775.3203125	20744.005859375	16024.9619140625	16061.76171875	18104.322265625	15908.0625	17554.205078125	10720.025390625	15660.6904296875	15748.6884765625	14682.046875	18270.537109375	16648.65625	15422.060546875	18305.703125	15822.0986328125	15037.353515625	14359.5849609375	15247.61328125	16227.380859375	16334.2431640625	15673.8251953125	19732.84375	15608.9619140625	17425.8359375	15394.255859375	18159.5546875	15004.580078125	16186.0927734375	16326.994140625	14948.4228515625	15848.916015625	15472.126953125	16875.626953125	12141.5029296875	20225.046875	16217.3095703125
90	120	19330.353515625	20003.8203125	24739.970703125	23895.486328125	23190.818359375	29517.533203125	20714.99609375	17898.888671875	21065.380859375	19550.00390625	14832.0234375	26582.5390625	18842.76953125	14790.5576171875	19483.564453125	20118.92578125	24657.71875	24995.865234375	23800.10546875	27410.20703125	19758.123046875	20671.248046875	18647.53125	22659.826171875	20275.96875	18177.728515625	4927.115234375	6772.72705078125	27009.26171875	20904.23046875	17679.984375	4967.85693359375	26775.841796875	28901.072265625	28805.771484375	30405.232421875	19805.0390625	24872.875	23756.6640625	23962.587890625	27780.17578125	24528.60546875	25295.744140625	30709.3984375	25772.1015625	24499.646484375	20988.2265625	26177.267578125	27641.623046875	29068.853515625	28121.169921875	29781.87109375	24579.71875	29881.623046875	26436.46875	29555.63671875	25236.4921875	27544.849609375	26768.443359375	24923.35546875	24469.62890625	24606.60546875	31185.953125	21929.568359375	32416.00390625	25598.927734375	26583.576171875	27513.017578125	25949.89453125	28116.55078125	17669.771484375	25552.263671875	25013.697265625	23773.48828125	27428.421875	26722.177734375	25421.5078125	28834.16796875	25165.619140625	24492.419921875	22097.3203125	25444.001953125	27044.73828125	27207.50390625	26504.548828125	30195.82421875	24454.5703125	29185.4765625	23883.09765625	29415.86328125	24250.146484375	26335.4609375	26173.677734375	24560.830078125	25266.95703125	25721.591796875	27794.203125	19938.087890625	29088.51953125	24814.693359375
120	150	25103.755859375	26491.314453125	32525.05078125	31231.2890625	30505.265625	36692.5859375	26763.251953125	23224.52734375	26108.896484375	25127.19921875	18434.69921875	31036.865234375	26014.78125	16971.79296875	25030.458984375	25853.84765625	32887.48046875	31393.18359375	31241.4296875	35881.578125	27219.921875	26675.634765625	24310.73828125	30881.009765625	25998.857421875	21236.591796875	6283.83447265625	8634.4345703125	33865.87890625	27151.361328125	21979.740234375	6423.06201171875	34783.8359375	35297.546875	37660.69140625	38797.44921875	27327.642578125	32865.2265625	31329.56640625	31422.64453125	34763.52734375	31554.560546875	33316.65234375	36946.66015625	32933.99609375	32203.095703125	28761.39453125	32573.900390625	34161.203125	36942.859375	35113.18359375	37430.72265625	31224.5859375	36967.09375	34147.66015625	38435.16015625	30819.634765625	35121.53125	33891.484375	31825.203125	31102.734375	32004.71875	35417.1640625	26183.388671875	40866.00390625	32726.162109375	33150.53515625	35255.79296875	32945.9765625	36029.484375	23956.646484375	33245.65625	32470.388671875	31640.9140625	36464.0	34345.7578125	31267.466796875	36011.0859375	30677.482421875	32337.44140625	28941.40625	31206.037109375	33834.51171875	34298.65625	34554.34765625	38926.5234375	31405.017578125	36894.77734375	30458.638671875	37506.859375	29410.76953125	34209.3359375	33588.16796875	30814.44921875	32359.7734375	31744.7265625	36632.82421875	25367.0	38640.23046875	31059.66796875
150	180	25764.796875	27262.443359375	33763.9765625	30958.818359375	32114.50390625	38366.5390625	27389.671875	24258.451171875	26464.67578125	26844.99609375	17955.224609375	34102.703125	26618.66796875	17670.314453125	25836.91015625	27935.099609375	33853.07421875	32895.49609375	33352.75	37506.26171875	28525.529296875	27383.302734375	24134.314453125	33721.796875	27219.01171875	20237.71875	5963.64794921875	8803.4453125	33618.87109375	28347.841796875	22072.302734375	6567.64404296875	35371.36328125	38255.70703125	38708.2265625	39526.3828125	26104.3046875	33140.0	31492.9140625	32454.0234375	35397.90234375	33062.6484375	34102.68359375	39979.4921875	33732.41796875	33356.07421875	29522.3984375	32281.53125	35927.2578125	38150.19140625	37052.62890625	39511.78125	32651.546875	35426.5859375	35293.08203125	39462.83203125	30889.111328125	36503.27734375	35554.93359375	32325.17578125	31961.384765625	33033.265625	39184.1328125	27213.841796875	41190.08203125	32831.41015625	35096.7890625	35644.2421875	33873.375	36954.21875	25448.3984375	33881.36328125	33989.18359375	32831.94140625	38796.1640625	35588.49609375	32324.91015625	35861.01953125	32310.30859375	33677.03515625	30518.5859375	33561.55859375	35180.53125	35224.828125	34061.9765625	41392.6171875	31575.931640625	36289.77734375	31277.107421875	38834.44140625	29969.25390625	35042.3203125	34343.01953125	31705.99609375	33283.171875	33394.66796875	35822.95703125	26015.58203125	38312.06640625	31761.6484375
180	240	25364.005859375	26937.267578125	32561.123046875	31329.2734375	31386.2578125	37425.234375	27433.189453125	22802.55078125	25396.869140625	26474.57421875	17091.078125	32892.1484375	26424.205078125	15970.9873046875	25346.578125	27033.095703125	32401.490234375	32331.560546875	33437.79296875	38158.34765625	28217.5234375	25153.59765625	24277.96875	32815.73828125	26577.466796875	18017.85546875	5895.86328125	8471.3857421875	33380.06640625	26513.22265625	21024.603515625	6493.3525390625	34658.34375	36914.6328125	36784.31640625	38264.0	24036.36328125	33297.30859375	31231.087890625	32331.119140625	35844.76171875	31826.984375	33068.8515625	36641.9140625	32734.1015625	32626.080078125	28975.279296875	31538.322265625	34579.9375	37132.4296875	35238.89453125	37418.4296875	31684.458984375	36427.45703125	33752.48828125	37332.765625	29853.994140625	35047.765625	33771.1953125	31713.5078125	30856.62890625	32562.396484375	35767.3984375	26524.720703125	38281.5234375	32042.419921875	34893.44921875	34331.8203125	33327.51953125	35146.1640625	23448.064453125	33748.12109375	32545.23828125	31888.681640625	35175.6015625	33984.73046875	31487.796875	34658.01171875	31177.716796875	32208.287109375	28757.318359375	30641.23046875	33949.859375	34240.48828125	32599.556640625	39035.99609375	30997.197265625	35555.23046875	30574.892578125	37084.40234375	30005.658203125	33860.1328125	33044.8515625	30437.310546875	31803.30078125	32674.177734375	36116.4765625	25595.80859375	35482.421875	31279.62109375
240	300	24135.8203125	25851.38671875	30901.576171875	30523.275390625	30003.28125	36786.03515625	28363.21875	22324.412109375	23835.158203125	26410.8515625	16403.03125	32429.3359375	25066.216796875	15027.4453125	24176.134765625	25983.056640625	30548.61328125	30948.052734375	31785.7578125	36498.4375	27120.123046875	24268.875	25176.6171875	32014.65625	25403.55078125	16729.19921875	5548.61181640625	8303.865234375	29976.8359375	25290.755859375	19688.3359375	6436.13037109375	33020.5390625	33256.6015625	34236.33984375	34380.24609375	23825.501953125	31592.2734375	29610.322265625	30566.88671875	31728.302734375	29233.90625	31092.982421875	33206.75	30597.26171875	30914.5078125	27122.212890625	29605.599609375	32209.705078125	34891.37109375	33381.80078125	33499.81640625	29452.744140625	33855.2109375	31589.55078125	34993.47265625	28539.328125	33273.23828125	31453.701171875	29717.85546875	29248.876953125	30225.46484375	33583.0546875	26609.638671875	34422.62890625	30699.025390625	31823.984375	33037.08203125	30476.44140625	32779.19921875	23255.416015625	31823.1015625	30797.142578125	29691.318359375	33768.21875	31282.595703125	29576.494140625	31633.255859375	29718.640625	30924.49609375	27992.775390625	28779.189453125	31810.12890625	31686.224609375	30971.94921875	36083.59375	28777.794921875	33845.6796875	28525.890625	34794.640625	28476.033203125	31825.482421875	30877.0625	28588.9140625	29888.32421875	30681.845703125	33606.92578125	24939.818359375	31933.384765625	29208.173828125
300	360	22684.4765625	24507.994140625	28700.05859375	28017.771484375	28033.83203125	33919.859375	27049.416015625	21075.484375	21567.28125	24026.142578125	15228.193359375	29282.021484375	24531.177734375	13335.751953125	22688.93359375	23761.03125	28128.296875	29474.501953125	29630.419921875	34342.01953125	26267.25	22592.990234375	22504.111328125	28436.74609375	24606.6953125	15250.388671875	4905.5087890625	8054.9580078125	27814.818359375	24465.919921875	18040.330078125	6481.8349609375	30163.70703125	31142.322265625	31345.091796875	32453.849609375	23011.96875	29816.400390625	26904.97265625	28885.80078125	30515.2421875	26842.978515625	29145.212890625	31231.62109375	27876.51171875	28780.0546875	26564.333984375	27150.693359375	30129.76171875	32409.060546875	30831.5078125	30538.619140625	26707.6640625	30987.75390625	28933.576171875	31969.43359375	26337.26171875	30362.529296875	28959.98828125	27329.595703125	26683.248046875	27671.2109375	31879.025390625	24760.603515625	32207.830078125	28041.15625	29720.71875	29895.38671875	27836.96875	29204.673828125	21247.40625	29750.953125	28629.04296875	27625.181640625	31457.095703125	29011.521484375	28172.86328125	29532.87109375	27540.93359375	28808.185546875	24630.318359375	26474.474609375	29173.421875	30569.076171875	28403.857421875	32256.865234375	26367.130859375	30953.951171875	26188.578125	32077.693359375	26036.982421875	29152.54296875	28672.74609375	26415.72265625	27652.931640625	28132.76171875	31179.482421875	23994.69921875	28143.923828125	27507.755859375
360	480	20457.63671875	22355.81640625	25230.65234375	26114.3359375	24571.279296875	30322.638671875	23730.916015625	19189.4453125	19313.439453125	23144.453125	13367.6748046875	25738.71875	22685.791015625	11884.6748046875	20350.37890625	21908.140625	24960.888671875	26474.74609375	24833.154296875	29703.90234375	24279.56640625	19905.51953125	21285.173828125	25940.76171875	22517.091796875	12492.0703125	4638.92724609375	7588.326171875	25189.716796875	21608.404296875	15825.9404296875	6421.16455078125	26217.9609375	26494.326171875	27727.796875	27187.5546875	21803.203125	26136.14453125	23545.08984375	25792.546875	25956.537109375	23349.0625	25642.556640625	26359.341796875	24802.833984375	25306.759765625	22969.205078125	23572.34765625	25884.7265625	27472.830078125	26406.2109375	25808.966796875	23365.3359375	26708.1484375	25227.404296875	27887.91015625	23183.46484375	26647.087890625	25269.41015625	23564.732421875	23617.759765625	24748.205078125	26227.92578125	22756.447265625	26608.451171875	25479.224609375	26876.671875	25840.89453125	24879.984375	25386.431640625	20695.912109375	25928.49609375	24926.49609375	25397.23828125	26538.560546875	25014.2578125	24963.623046875	25300.3671875	24305.470703125	25353.330078125	22809.353515625	22941.958984375	24667.1640625	25471.248046875	24130.248046875	26639.07421875	23070.962890625	27234.95703125	22767.998046875	27118.25390625	22775.09375	25250.787109375	25049.3515625	22817.875	24249.87890625	24332.876953125	27124.087890625	21752.90234375	25662.55859375	23921.8515625
480	600	18164.763671875	19713.779296875	20996.03515625	22429.193359375	20429.298828125	26198.75390625	22989.599609375	17492.330078125	17682.984375	21187.69140625	11774.1025390625	23182.92578125	20452.578125	10285.171875	18078.16796875	19694.46875	20914.564453125	23552.9609375	21231.869140625	25227.34375	22359.8828125	17960.375	19356.37109375	24371.15625	20777.396484375	11336.154296875	4187.32275390625	7159.06787109375	20530.9609375	19545.2109375	13490.275390625	6322.0888671875	22654.16796875	22508.111328125	22757.033203125	23170.310546875	19511.869140625	22555.216796875	20179.755859375	22183.328125	21704.92578125	19519.794921875	22293.044921875	22088.75390625	21417.115234375	21839.986328125	20104.830078125	19668.21484375	21563.822265625	23225.09375	22204.23828125	21394.7265625	19823.80859375	22635.37109375	21080.90625	23231.6328125	20195.697265625	22073.986328125	21106.10546875	19638.66015625	20477.927734375	20758.849609375	23170.080078125	19817.712890625	22090.380859375	22452.70703125	21785.5546875	21821.453125	21087.525390625	21679.361328125	17322.29296875	22503.8984375	21070.2421875	21528.798828125	21918.587890625	20791.279296875	21387.1015625	20756.146484375	20911.0390625	21293.1328125	19769.1953125	19097.921875	21043.400390625	20817.677734375	19843.857421875	22379.041015625	19517.662109375	22309.279296875	19154.94140625	22491.6015625	19507.923828125	21009.859375	21067.9609375	18961.421875	20444.798828125	20847.48828125	23404.904296875	19180.666015625	20472.287109375	20842.79296875
600	900	15202.6953125	16447.13671875	16092.623046875	18654.611328125	15862.341796875	20177.326171875	19450.57421875	14094.4599609375	14070.9775390625	16759.228515625	9929.3720703125	18180.58203125	17448.294921875	9169.25390625	15180.1474609375	16549.48828125	16031.779296875	18788.978515625	16645.203125	20043.58984375	19662.521484375	14558.4462890625	16196.560546875	18712.763671875	17110.123046875	9375.5322265625	3680.427978515625	6587.15771484375	15450.322265625	16482.33203125	10630.8994140625	6113.82666015625	17711.6484375	17130.076171875	17898.330078125	17207.97265625	14811.2626953125	18306.001953125	15716.7646484375	17580.18359375	16791.05078125	15026.5419921875	17580.58203125	16796.380859375	16604.859375	17215.85546875	16347.587890625	15438.951171875	16922.775390625	18175.109375	17384.802734375	16415.591796875	15373.8134765625	17292.193359375	16392.02734375	18109.111328125	15995.5068359375	17212.666015625	16196.697265625	15492.724609375	15966.5654296875	16140.537109375	16420.30859375	16198.2109375	16906.42578125	17701.478515625	17773.658203125	17053.623046875	15794.87109375	16368.466796875	14903.9921875	17605.98046875	16216.6455078125	16876.888671875	16889.595703125	16042.6025390625	16765.4921875	15995.8701171875	16592.55859375	16542.78125	15836.33984375	14772.552734375	15989.1982421875	16668.8359375	15582.1005859375	17026.6484375	14865.9208984375	17304.685546875	14836.3916015625	17397.505859375	16147.0634765625	16228.6103515625	16139.966796875	14761.40234375	16052.361328125	16152.900390625	17551.5703125	16041.3115234375	16194.9208984375	16952.0234375
900	1200	12861.9423828125	13527.4912109375	11716.4267578125	14569.6669921875	11433.9296875	15511.6787109375	16028.4443359375	11586.365234375	11303.0087890625	13459.267578125	8211.287109375	13358.58984375	14374.0908203125	8140.9912109375	12844.9013671875	13688.263671875	11709.51953125	14429.859375	12660.8232421875	14871.6396484375	15826.30078125	11609.6220703125	13417.56640625	14142.505859375	14068.9951171875	7896.1474609375	3234.98828125	6190.4072265625	11262.6611328125	13338.7958984375	8465.4619140625	6040.05078125	13816.0595703125	12775.1015625	13783.1611328125	13868.736328125	11793.92578125	14146.23828125	12365.1845703125	13844.330078125	13240.1826171875	11830.2099609375	14123.9482421875	13143.15625	12929.248046875	13628.4873046875	12520.8134765625	11868.8271484375	13375.8486328125	14389.15625	13476.22265625	12780.6005859375	11963.4384765625	13370.9248046875	12798.4990234375	13822.5537109375	12060.5439453125	13398.140625	12504.4775390625	11997.2900390625	12587.9521484375	12734.0947265625	12770.17578125	13176.849609375	13467.7548828125	13985.1396484375	13656.1875	13393.353515625	12326.966796875	12900.1669921875	11589.78515625	14042.177734375	12668.0205078125	13298.509765625	12966.2509765625	12549.1796875	13422.0009765625	12539.8720703125	13111.326171875	13086.15234375	12299.7509765625	11410.298828125	12550.0078125	13078.62109375	12132.181640625	13026.14453125	11851.263671875	13472.1650390625	11607.29296875	13484.392578125	12700.68359375	12619.5068359375	12523.298828125	11694.23046875	12546.4208984375	12718.10546875	13477.0029296875	12437.978515625	13061.96875	13327.216796875
1200	1500	11869.943359375	11914.5634765625	9587.90234375	12084.41796875	9559.2470703125	13056.80078125	14502.466796875	9956.9833984375	9662.701171875	11798.5400390625	7383.85498046875	11091.6337890625	12260.515625	7552.90869140625	11786.7275390625	12199.26171875	9583.5283203125	12293.6552734375	10604.98828125	12678.8681640625	14063.7890625	9839.7568359375	10931.0732421875	11647.158203125	12318.80078125	7335.984375	3102.045654296875	6125.37060546875	9346.875	12108.3916015625	7599.361328125	6114.927734375	12451.8427734375	11324.1474609375	12036.517578125	12222.21875	10572.224609375	12647.0771484375	10943.8779296875	12423.59375	11611.546875	10813.6494140625	12451.34765625	11726.9228515625	11155.6669921875	11781.3134765625	11212.21484375	10364.3408203125	11966.658203125	12706.8427734375	12028.8212890625	11590.17578125	10708.8173828125	11906.7509765625	11381.3740234375	12126.2490234375	10478.0703125	11884.5009765625	10938.8095703125	10730.962890625	10951.095703125	11292.5673828125	11519.861328125	11430.5595703125	11905.904296875	12546.70703125	12359.3486328125	11761.35546875	11218.076171875	11416.2158203125	10392.0576171875	12262.7626953125	11253.0458984375	11733.0947265625	11591.98046875	11199.6162109375	12090.7578125	11260.4609375	11496.6015625	11449.5302734375	11068.6708984375	10450.3330078125	10946.837890625	11778.16015625	10994.7783203125	11791.7568359375	10497.0576171875	12223.6455078125	10373.9541015625	11679.544921875	10790.5498046875	11092.5888671875	10946.6533203125	10255.3564453125	11030.7978515625	11066.80078125	11855.076171875	10849.8857421875	11883.65625	11937.833984375
1500	1800	11281.6328125	11012.865234375	8469.7294921875	10760.3916015625	8751.810546875	11739.8076171875	12664.087890625	9053.2216796875	8654.732421875	10507.408203125	6834.134765625	9743.568359375	11293.314453125	6601.53271484375	11193.1796875	10995.76171875	8354.455078125	10438.5859375	9670.2197265625	11130.48828125	12668.8564453125	9015.9130859375	9892.6318359375	9913.7880859375	10953.8759765625	6730.89501953125	2960.33349609375	6080.22998046875	8257.0283203125	11186.1630859375	7179.0400390625	6226.79345703125	11610.6416015625	10332.232421875	11395.5869140625	11475.27734375	9316.1708984375	11672.3759765625	10239.04296875	11688.3857421875	11104.4990234375	10064.724609375	11658.0087890625	11134.9189453125	10326.5029296875	11027.216796875	10262.5361328125	9387.31640625	11136.865234375	11507.3876953125	11229.921875	11116.255859375	10061.1533203125	11277.8076171875	10706.3603515625	11516.654296875	9679.5537109375	11187.427734375	10391.607421875	9966.2216796875	10327.6591796875	10681.9033203125	10564.72265625	10529.4794921875	10998.4755859375	11343.150390625	11715.1689453125	10672.0517578125	10428.9765625	10751.4306640625	9364.1474609375	11614.66796875	10547.275390625	11172.447265625	11033.212890625	10733.197265625	11131.287109375	10611.951171875	10598.2919921875	10796.7314453125	9898.771484375	9476.8681640625	10613.4462890625	11019.87890625	10196.2373046875	11045.0439453125	9802.84765625	11334.458984375	9791.537109375	11160.9453125	10146.044921875	10606.9482421875	10104.1904296875	9639.9921875	10379.26171875	10582.5693359375	10778.51953125	9901.1875	11127.2890625	10981.119140625
1800	2100	10786.490234375	10050.5048828125	7560.822265625	9512.12109375	8349.505859375	10937.1630859375	11728.6015625	8050.2216796875	7869.02197265625	9152.2275390625	6558.04541015625	8539.009765625	10010.658203125	6763.88134765625	10698.8994140625	10029.072265625	7409.51123046875	9595.697265625	8952.2138671875	10437.1865234375	11483.6328125	8257.62109375	8644.287109375	8497.763671875	9994.4892578125	6258.412109375	2920.943359375	6209.43359375	7235.744140625	10221.634765625	6843.5966796875	6400.24462890625	10876.6103515625	9589.06640625	10746.3408203125	10573.54296875	8368.0185546875	11063.8984375	9547.1103515625	10934.421875	10449.185546875	9467.77734375	11097.3056640625	10401.890625	9795.2373046875	10375.412109375	9657.5556640625	9369.873046875	10754.6015625	11180.4560546875	10975.7294921875	10579.890625	9512.67578125	10613.3505859375	9990.419921875	10797.6796875	8901.224609375	10558.19921875	9641.3681640625	9172.359375	9737.818359375	10051.9384765625	9689.599609375	9525.1416015625	10422.7138671875	10605.583984375	11051.689453125	10294.6044921875	9810.1123046875	10150.48828125	8445.9853515625	10580.7421875	9722.3017578125	10224.595703125	10484.5869140625	9888.1484375	10471.419921875	10094.9267578125	10030.6376953125	10251.119140625	9655.5234375	8936.681640625	9739.958984375	10096.607421875	9726.7978515625	10631.0244140625	9108.9228515625	10596.140625	9275.7265625	10551.1201171875	9838.4658203125	9882.1337890625	9822.9619140625	9042.60546875	9730.8427734375	10101.0830078125	10447.4541015625	9292.3369140625	10988.365234375	10214.107421875
2100	2400	10307.1240234375	9524.498046875	6780.39453125	8804.060546875	7384.51318359375	9841.1787109375	11136.3359375	7337.6376953125	7615.029296875	8579.8828125	6196.6201171875	7779.72119140625	9213.7119140625	6156.45751953125	10165.4189453125	9449.740234375	6847.228515625	8443.5498046875	8412.30859375	9294.287109375	10538.669921875	8146.25	8105.7255859375	7858.76953125	8643.017578125	6531.5107421875	2903.86767578125	6666.91650390625	6691.10595703125	9380.52734375	6730.07373046875	6535.8642578125	10375.189453125	9931.0654296875	10506.12890625	10849.7353515625	8409.4384765625	10716.5537109375	9094.369140625	10652.7197265625	10515.8818359375	8691.615234375	10727.09375	10059.642578125	9037.4619140625	9779.177734375	9107.3515625	8297.0732421875	10516.55078125	10762.22265625	10480.521484375	10362.68359375	9374.9296875	9890.6259765625	9705.05078125	10340.2958984375	8820.4541015625	10362.9658203125	9237.3408203125	9006.6943359375	9277.578125	9695.8251953125	9607.736328125	9503.373046875	10347.220703125	10415.046875	10293.490234375	9720.0615234375	10052.0185546875	9610.771484375	7146.61376953125	9255.2529296875	9441.9736328125	9031.0087890625	9392.94140625	9251.8154296875	9426.265625	9462.1259765625	9373.1298828125	9460.802734375	8177.91552734375	8765.009765625	9563.06640625	8982.3427734375	9073.7177734375	10325.349609375	9312.3369140625	9603.6171875	9179.861328125	9907.0849609375	9038.9287109375	9769.220703125	9420.91015625	8548.419921875	9666.53515625	9657.986328125	10256.986328125	9086.849609375	10553.6513671875	9656.6884765625
