frame_start	frame_end	Left-Cerebral-White-Matter	Left-Cerebellum-White-Matter	Left-Cerebellum-Cortex	Left-Thalamus	Left-Caudate	Left-Putamen	Left-Pallidum	Brain-Stem	Left-Hippocampus	Left-Amygdala	CSF	Left-Accumbens-area	Left-VentralDC	Left-choroid-plexus	Right-Cerebral-White-Matter	Right-Cerebellum-White-Matter	Right-Cerebellum-Cortex	Right-Thalamus	Right-Caudate	Right-Putamen	Right-Pallidum	Right-Hippocampus	Right-Amygdala	Right-Accumbens-area	Right-VentralDC	Right-choroid-plexus	AirCavity	Skull	Vermis	Pons	CSF-ExtraCerebral	Head-ExtraCerebral	ctx-lh-bankssts	ctx-lh-caudalanteriorcingulate	ctx-lh-caudalmiddlefrontal	ctx-lh-cuneus	ctx-lh-entorhinal	ctx-lh-fusiform	ctx-lh-inferiorparietal	ctx-lh-inferiortemporal	ctx-lh-isthmuscingulate	ctx-lh-lateraloccipital	ctx-lh-lateralorbitofrontal	ctx-lh-lingual	ctx-lh-medialorbitofrontal	ctx-lh-middletemporal	ctx-lh-parahippocampal	ctx-lh-paracentral	ctx-lh-parsopercularis	ctx-lh-parsorbitalis	ctx-lh-parstriangularis	ctx-lh-pericalcarine	ctx-lh-postcentral	ctx-lh-posteriorcingulate	ctx-lh-precentral	ctx-lh-precuneus	ctx-lh-rostralanteriorcingulate	ctx-lh-rostralmiddlefrontal	ctx-lh-superiorfrontal	ctx-lh-superiorparietal	ctx-lh-superiortemporal	ctx-lh-supramarginal	ctx-lh-frontalpole	ctx-lh-temporalpole	ctx-lh-transversetemporal	ctx-lh-insula	ctx-rh-bankssts	ctx-rh-caudalanteriorcingulate	ctx-rh-caudalmiddlefrontal	ctx-rh-cuneus	ctx-rh-entorhinal	ctx-rh-fusiform	ctx-rh-inferiorparietal	ctx-rh-inferiortemporal	ctx-rh-isthmuscingulate	ctx-rh-lateraloccipital	ctx-rh-lateralorbitofrontal	ctx-rh-lingual	ctx-rh-medialorbitofrontal	ctx-rh-middletemporal	ctx-rh-parahippocampal	ctx-rh-paracentral	ctx-rh-parsopercularis	ctx-rh-parsorbitalis	ctx-rh-parstriangularis	ctx-rh-pericalcarine	ctx-rh-postcentral	ctx-rh-posteriorcingulate	ctx-rh-precentral	ctx-rh-precuneus	ctx-rh-rostralanteriorcingulate	ctx-rh-rostralmiddlefrontal	ctx-rh-superiorfrontal	ctx-rh-superiorparietal	ctx-rh-superiortemporal	ctx-rh-supramarginal	ctx-rh-frontalpole	ctx-rh-temporalpole	ctx-rh-transversetemporal	ctx-rh-insula
0	30	11.56395149230957	17.06399917602539	9.39194393157959	13.399255752563477	-4.76008415222168	-2.5061445236206055	14.259854316711426	27.153759002685547	4.1315107345581055	-5.791452884674072	23.932418823242188	14.826983451843262	-6.453418254852295	67.65777587890625	8.99167251586914	6.969174385070801	6.034310340881348	10.852399826049805	1.2738077640533447	1.346944808959961	2.0970425605773926	17.838041305541992	-6.653180122375488	-12.249287605285645	-4.820989608764648	86.2863998413086	6.10310697555542	10.142131805419922	-16.047630310058594	8.440177917480469	13.486505508422852	11.73189926147461	42.71216583251953	17.429277420043945	-5.456671714782715	4.9323883056640625	-3.307935953140259	-13.406187057495117	-0.3060925006866455	15.025845527648926	85.4382095336914	-1.3898229598999023	-12.090089797973633	13.189775466918945	-5.316512107849121	1.998957872390747	27.10073471069336	-18.476097106933594	-3.8297672271728516	19.794960021972656	5.730902194976807	-11.467924118041992	3.9671950340270996	42.31819534301758	7.398688793182373	-12.443056106567383	-11.048333168029785	-11.822422981262207	-0.46443870663642883	6.898126602172852	0.3750249147415161	-5.23486328125	-20.546598434448242	5.273975849151611	-17.102962493896484	13.18790054321289	-3.219928741455078	-15.50497817993164	2.404757022857666	12.785070419311523	63.15243911743164	50.83811569213867	7.686626434326172	21.972000122070312	-9.204292297363281	17.1881103515625	-8.812766075134277	-9.997944831848145	-6.470540523529053	17.04648780822754	8.065185546875	-0.4492742419242859	50.3100471496582	9.291463851928711	2.1519839763641357	43.03221893310547	-0.773039698600769	-16.262836456298828	-2.6865358352661133	-4.15302848815918	-10.406966209411621	-0.43608179688453674	13.13488483428955	12.860898971557617	2.994812488555908	40.46613693237305	-14.224275588989258	-3.6195859909057617	-22.764413833618164	4.38137674331665
30	60	277.2882995605469	643.0593872070312	834.4928588867188	731.0606689453125	1251.7685546875	1636.000732421875	845.896728515625	978.868896484375	1341.888427734375	1183.1619873046875	258.0701904296875	2679.674560546875	409.6237487792969	5384.13916015625	326.764892578125	367.6341552734375	903.4130249023438	862.064453125	1370.150390625	1028.414794921875	391.0688171386719	951.6495361328125	1056.5140380859375	2195.261962890625	661.0496826171875	819.0526733398438	284.33209228515625	289.3251647949219	756.7689819335938	626.4613037109375	1005.85888671875	398.75115966796875	1299.7381591796875	1717.1689453125	1709.011474609375	1542.083740234375	1919.862060546875	1139.7982177734375	1151.633056640625	913.6529541015625	1400.09033203125	1325.4012451171875	1656.150146484375	1360.4046630859375	1860.0272216796875	871.9049072265625	1118.0584716796875	890.087158203125	1805.8585205078125	2562.956787109375	1695.126220703125	1892.8363037109375	930.9444580078125	800.0511474609375	1488.6644287109375	1587.2640380859375	1671.76904296875	1491.8798828125	1343.0234375	795.5900268554688	1498.262451171875	1345.6356201171875	2290.9130859375	1567.8775634765625	2880.542236328125	2169.955810546875	1202.8408203125	860.4628295898438	1332.238525390625	1750.2216796875	1286.162353515625	1285.7760009765625	841.01318359375	857.3865966796875	1071.0277099609375	1110.3006591796875	2052.43701171875	1291.760009765625	1812.654541015625	1059.1015625	779.2034301757812	484.3514709472656	1931.6614990234375	1281.5205078125	1450.3504638671875	1570.9217529296875	935.8013305664062	1955.6239013671875	1037.8621826171875	978.5059814453125	1321.9970703125	1249.8712158203125	1227.7288818359375	764.8548583984375	1353.2193603515625	1328.206787109375	1555.6519775390625	1571.8970947265625	4210.1708984375	2013.902587890625
60	90	2264.52001953125	5847.4677734375	10803.7744140625	11840.794921875	15338.6533203125	17654.650390625	2563.730712890625	7785.23583984375	10929.98828125	10096.142578125	4453.81005859375	16293.59765625	8336.1357421875	23885.763671875	2610.388671875	4729.23486328125	10416.390625	11025.123046875	16873.517578125	16088.392578125	5347.15283203125	9784.9404296875	9652.9970703125	17045.109375	7952.2763671875	20681.44140625	2289.7607421875	2556.449951171875	9372.337890625	7930.1416015625	6636.9990234375	2730.599609375	15084.1630859375	13960.408203125	17584.70703125	18593.23828125	14729.5712890625	12803.3447265625	14989.328125	13440.8349609375	17730.1484375	15482.4599609375	18452.51171875	17766.71484375	21241.818359375	13560.837890625	10001.8916015625	13080.6044921875	17302.92578125	18444.033203125	18655.37890625	25704.134765625	13028.4423828125	16887.23046875	15821.09375	16444.82421875	16794.265625	18767.416015625	16566.556640625	12937.486328125	15460.30078125	15412.259765625	23705.01171875	11160.080078125	22694.048828125	15870.3857421875	15833.8828125	13345.3505859375	15876.58984375	20289.41015625	11104.630859375	12129.9228515625	14168.35546875	11874.591796875	15196.0244140625	17433.94921875	19049.279296875	17307.62109375	17568.73046875	13551.3974609375	8722.5	11538.22265625	18445.537109375	17146.580078125	17510.05859375	24486.310546875	13463.30078125	16318.841796875	14387.7958984375	16998.017578125	12395.666015625	17491.13671875	15510.8076171875	11713.830078125	15091.607421875	15125.9892578125	19755.353515625	16054.99609375	19737.443359375	16011.494140625
90	120	5599.7763671875	13833.5224609375	26304.86328125	27796.44921875	41282.55078125	43665.3984375	8651.6220703125	19241.625	24123.884765625	19672.22265625	9225.5263671875	23925.650390625	21599.41015625	103132.40625	6296.5732421875	13005.3857421875	25426.259765625	29434.041015625	40954.44140625	41091.2421875	16424.234375	21837.08203125	20692.896484375	31959.099609375	21213.158203125	71479.1796875	4032.660400390625	5744.44384765625	25889.365234375	19637.740234375	11300.701171875	6130.45263671875	40651.98828125	37867.43359375	45359.98828125	42288.73828125	33452.07421875	31601.119140625	35702.375	33794.1328125	40490.43359375	40357.9375	43655.1484375	49836.9765625	47003.265625	34983.3671875	22070.658203125	33096.3125	43502.359375	45911.85546875	45472.609375	65789.6328125	35210.078125	44831.4296875	40911.49609375	40763.640625	39117.7109375	47969.94921875	41515.125	35771.8125	36777.44140625	39985.33984375	54046.28515625	27187.6328125	53937.33984375	35439.03515625	39925.06640625	30532.72265625	42208.03515625	44911.20703125	25756.513671875	30382.5234375	36283.0625	32565.775390625	41397.85546875	43870.5078125	45588.6640625	43108.32421875	39672.66015625	35302.21875	24229.021484375	33911.03125	45289.18359375	41088.08203125	45516.77734375	61345.234375	38032.36328125	37784.73828125	37933.0703125	41632.67578125	33570.93359375	44216.1640625	41684.87890625	35378.1640625	36959.4921875	38900.48828125	53657.3984375	34014.1640625	54739.87890625	30614.65625
120	150	8969.435546875	22357.1328125	42433.08203125	45862.140625	66982.078125	69595.8203125	22067.232421875	28446.08984375	39391.890625	32642.671875	17186.58203125	43114.01953125	31490.138671875	98339.7265625	9892.974609375	20539.111328125	41707.234375	45740.3359375	65379.6171875	65881.828125	24597.408203125	41868.3828125	33711.546875	63691.8515625	32005.099609375	81698.0546875	5876.96435546875	8501.455078125	38079.78515625	33138.9453125	12407.2822265625	9195.986328125	60096.24609375	61203.19921875	74993.171875	76186.8828125	45868.34375	49370.3671875	60982.21875	54583.91015625	64758.12890625	63795.41796875	72184.734375	75562.703125	77401.53125	57964.28125	38784.44921875	58035.2265625	70826.375	71248.0390625	76001.4921875	106341.0390625	63381.2421875	69874.2578125	69526.625	67654.8515625	63504.24609375	79685.625	70409.53125	63450.3125	58244.62890625	65917.8984375	92637.7421875	44687.46484375	78876.265625	53054.2890625	61664.375	57787.59375	70362.4296875	73847.28125	45395.26953125	50311.5	60896.74609375	53305.171875	69779.125	71799.1171875	71524.046875	71376.7265625	64439.32421875	59078.9609375	36756.3515625	60765.76953125	68762.125	70550.421875	73663.7578125	102642.59375	65930.03125	65230.67578125	64696.85546875	69933.5859375	48964.66796875	74028.1015625	66847.7265625	62765.8671875	57470.7578125	63797.59765625	89656.1640625	52351.5859375	89768.8125	49441.5234375
150	180	10785.357421875	28081.1171875	52374.0859375	56659.59375	85830.2265625	88028.1796875	24394.11328125	36841.671875	48238.31640625	45730.21484375	20325.55078125	72771.5	37060.9453125	130175.3984375	11742.7783203125	25866.33203125	51633.17578125	57491.859375	84346.5859375	83918.9765625	29080.388671875	48932.28125	45329.25	58754.65234375	41237.48046875	122491.5703125	6385.53857421875	9919.2353515625	49348.29296875	39925.86328125	10915.8017578125	11061.9853515625	79909.4609375	80582.3359375	91968.484375	91172.9375	55938.43359375	61519.6328125	75760.4765625	69063.6796875	75549.6875	81740.7265625	87843.4453125	93272.8828125	93003.125	72661.65625	52226.78515625	71666.9765625	87043.109375	88619.3984375	92608.375	130644.0859375	81698.2421875	82735.71875	86446.3046875	86064.0625	76180.75	100974.6875	86557.09375	83643.7265625	73153.1328125	81902.375	118800.0	59900.94921875	96826.84375	64052.41796875	77303.703125	63642.4375	89553.015625	92139.578125	55204.0078125	64203.86328125	79199.125	67038.6953125	87281.03125	91986.8359375	89735.8828125	86974.4609375	84103.9296875	74282.640625	43228.50390625	74872.53125	86214.71875	88236.984375	88718.25	128615.265625	82463.0	81347.546875	82070.9609375	88009.84375	59435.5859375	93886.6015625	84960.40625	79329.265625	72847.4921875	80234.1171875	108763.703125	67121.09375	109711.609375	60682.171875
180	240	12554.8720703125	30747.876953125	58072.35546875	61863.73828125	92279.1484375	97037.765625	25863.916015625	39552.95703125	50286.52734375	50028.54296875	16748.794921875	63286.77734375	42244.23046875	129059.75	13580.11328125	28534.474609375	57997.03125	65384.28125	94871.9296875	93658.765625	31425.12109375	52918.43359375	51751.8125	79053.265625	46377.71484375	107617.4296875	6333.70751953125	10414.0498046875	53915.12109375	43244.0625	6401.826171875	11735.3056640625	84685.1484375	84147.2265625	101583.65625	103737.375	61154.0625	67453.953125	83187.7265625	75205.875	86450.65625	90529.5	94176.4296875	100277.34375	102116.875	81119.453125	54002.67578125	82730.0546875	96066.3203125	96532.765625	98518.953125	138177.359375	90059.7109375	90910.75	95061.53125	91398.2734375	81046.984375	110550.2734375	97458.7890625	92748.3359375	77853.578125	89913.125	124567.1640625	62894.171875	108543.3203125	66940.5234375	87612.2265625	72699.0546875	97062.1640625	93838.71875	55547.2109375	68767.46875	86406.7265625	74179.2421875	92405.4453125	100376.8984375	93707.7421875	90665.921875	87863.078125	81657.1171875	51885.05859375	84250.4140625	93767.6796875	93399.4765625	101405.8046875	140468.5625	95253.0625	85066.6640625	90731.5	97021.015625	63438.4140625	103864.234375	93923.484375	92251.40625	78282.015625	86653.3125	115496.9921875	68767.609375	113407.71875	63010.67578125
240	300	13277.2021484375	31052.83984375	56913.00390625	61330.20703125	90384.65625	93456.0234375	29034.5546875	40816.03515625	48699.46484375	48749.828125	13136.640625	69056.1875	42604.96875	100853.484375	14183.3896484375	29044.119140625	56512.8125	64540.96484375	93448.171875	90843.4609375	31013.98828125	49966.65625	51797.5234375	67840.4375	43947.6328125	81866.2109375	5613.4052734375	10359.9296875	48884.984375	43014.01953125	3832.75439453125	12022.181640625	82687.2890625	77050.453125	99394.9296875	100225.0625	60869.19921875	66367.8515625	81633.375	73933.328125	82269.7734375	87435.7578125	91209.7578125	99661.0390625	96884.03125	78134.7265625	51279.3671875	81225.4453125	88794.6015625	90844.3203125	94376.90625	126307.671875	89971.46875	83095.9140625	91658.078125	89025.4296875	80184.8046875	106845.8515625	93831.46875	92265.921875	77115.3359375	85828.1953125	123357.484375	63826.31640625	98162.3359375	67448.890625	84725.25	72123.4921875	94308.8984375	91078.84375	52004.078125	68820.65625	84561.84375	73320.09375	86422.4921875	95252.609375	90245.546875	89218.6484375	86899.171875	79702.421875	53884.875	83769.875	87453.8984375	90074.1015625	95659.171875	127258.140625	93398.46875	84276.8984375	87306.4140625	94368.7265625	62643.42578125	100845.6796875	91294.6484375	91216.9921875	76887.4765625	84806.578125	107113.4375	68105.5625	104046.359375	61727.1484375
300	360	14254.0185546875	29941.802734375	53826.53125	58841.85546875	83492.078125	85414.5078125	32180.978515625	39697.328125	46696.87890625	49123.375	11703.765625	67201.6640625	42309.984375	63363.9140625	14717.7890625	28314.568359375	53603.8515625	62214.51171875	85752.484375	84476.8671875	32925.9765625	51077.16015625	51521.58984375	63765.15625	42827.203125	72610.890625	4846.171875	10316.8349609375	44727.1171875	40283.60546875	2230.09228515625	11809.318359375	73605.46875	75228.90625	90299.90625	89644.84375	61816.78125	60912.4140625	76120.7734375	69349.0625	76977.3515625	79281.2734375	83798.8125	88910.4921875	92735.8515625	75176.6796875	51173.328125	76581.9296875	84315.125	85659.4609375	87388.4921875	112307.578125	81657.7265625	76050.921875	84397.171875	82667.0703125	72548.53125	98020.2578125	86682.6484375	84646.3671875	71914.9375	78123.078125	111630.3046875	60893.765625	87090.3671875	63739.24609375	77638.15625	64624.6953125	88072.6796875	82300.171875	52573.0625	64714.0859375	78858.609375	69829.953125	75356.6953125	88944.1484375	84729.5625	81301.1953125	77293.96875	74991.0703125	51572.51171875	78027.0625	80731.84375	85381.0703125	86578.1640625	112829.34375	86982.4375	77470.171875	81169.0234375	86386.71875	61899.28515625	90849.65625	85484.6171875	85432.8125	72128.3828125	80030.875	106255.390625	68668.890625	94772.53125	59259.5859375
360	480	14790.9697265625	29686.23828125	48084.44140625	55065.42578125	73304.1015625	77287.6953125	32955.58203125	36128.20703125	41139.171875	49065.44921875	9375.642578125	60390.87109375	40654.671875	40994.53125	15233.1552734375	27388.005859375	48560.9765625	57052.0703125	76468.765625	74696.5703125	36067.4765625	44152.62109375	48731.9765625	61089.4609375	42478.1484375	50692.1484375	4027.394287109375	10269.9658203125	40769.734375	38422.83203125	584.7381591796875	11813.212890625	65748.3046875	65305.328125	79291.5703125	75706.9765625	54418.25	54465.8828125	66789.9375	61487.609375	63902.76171875	69052.6953125	72571.3671875	77881.8359375	80502.03125	66330.171875	48812.046875	67570.765625	73473.2890625	72185.6875	76369.3828125	93174.125	72483.8515625	67416.09375	74901.953125	71867.1328125	67355.78125	85079.328125	75925.0625	75684.8203125	66096.015625	69290.109375	101045.8203125	57180.1484375	75116.015625	58230.5	66968.40625	61407.07421875	76862.2578125	71540.8125	50439.51953125	57665.2578125	70688.3359375	62951.26171875	70683.7578125	76429.859375	72841.8359375	70426.8046875	69553.1328125	67532.2890625	48277.44921875	70126.515625	71348.4375	71703.4375	76092.875	92924.7265625	75212.921875	66755.6640625	71979.09375	74302.8203125	55355.5703125	80537.4375	74671.3671875	76060.640625	65708.4296875	70400.234375	94528.4453125	65497.921875	68498.5390625	54865.796875
480	600	15695.1689453125	28517.994140625	40334.88671875	47956.265625	60275.56640625	63470.359375	34835.83203125	33292.078125	35702.98046875	42469.203125	7030.48974609375	51168.62890625	38097.98046875	11915.640625	15849.892578125	26459.78125	41159.875	51117.7578125	58470.0546875	62462.375	34086.73046875	37155.1015625	45776.4375	50010.25390625	39988.1796875	30810.177734375	3372.177001953125	10095.46484375	33577.68359375	35650.2890625	-398.25677490234375	11423.60546875	54104.4375	56612.83984375	64904.58203125	63056.1640625	46979.8203125	47280.78125	54046.37890625	52767.53515625	52800.86328125	56632.87109375	60098.7421875	65045.93359375	63477.765625	55069.296875	42048.3125	56894.8359375	60269.98046875	60735.484375	61625.20703125	70829.8984375	60093.1796875	54088.7578125	60917.32421875	59636.13671875	56825.4765625	69725.125	62490.44140625	62362.85546875	55976.1640625	56320.78125	82118.3671875	51789.73828125	59235.828125	50067.5390625	56158.5546875	49645.6171875	63007.47265625	57595.37890625	46410.08203125	48806.7890625	58319.125	53216.9140625	58822.02734375	62576.23046875	59307.58203125	58028.97265625	60779.90625	56549.8125	43183.7109375	58139.44140625	57566.140625	59492.328125	61553.1171875	72872.4609375	62219.37109375	56599.56640625	58846.28125	59793.77734375	47686.15234375	65101.67578125	62291.33984375	62153.52734375	55007.28515625	57607.1953125	74568.5390625	57420.828125	56240.5	48855.25
600	900	16331.6171875	26270.36328125	31120.748046875	39058.56640625	41101.9453125	46479.671875	34765.71484375	29067.40625	27766.8046875	37799.828125	3740.0595703125	40318.20703125	33540.16015625	11745.330078125	16362.8125	25389.96875	31675.80859375	41683.80078125	43779.66796875	45853.875	32506.11328125	29998.65625	39157.71875	43741.2734375	34199.359375	14526.7119140625	2496.034912109375	10118.3427734375	23452.337890625	30640.3125	-1007.5078125	11305.833984375	40341.18359375	42279.87109375	47318.1640625	46582.82421875	40160.765625	37953.2109375	40354.30078125	39668.36328125	40345.84765625	40633.7421875	44951.44921875	46145.1796875	47866.40234375	42216.2734375	34740.3125	41808.46875	43740.50390625	42569.09765625	45074.15234375	49631.21875	43658.171875	41910.078125	45551.65625	44040.33203125	41850.15625	51548.66015625	47035.453125	46885.01953125	43515.0078125	42069.9140625	59593.94140625	43534.51953125	45116.6953125	42037.41796875	41375.59765625	39170.12890625	46388.99609375	42624.17578125	37719.23046875	38464.02734375	43119.46484375	41026.81640625	42435.21875	46594.94140625	44572.22265625	43595.75390625	47097.78515625	42871.15625	33444.421875	42980.63671875	42688.28515625	43565.8671875	45497.49609375	49374.0234375	46070.171875	40872.92578125	43592.76953125	45238.59375	37832.21875	49062.203125	46386.44921875	46895.94921875	42145.33203125	42043.01171875	55021.69921875	46741.84765625	40283.66796875	39607.9921875
900	1200	16672.2109375	23784.150390625	22426.7421875	30564.359375	27745.54296875	31632.453125	32083.123046875	23863.859375	20805.3125	30223.33984375	1004.7503051757812	27290.935546875	28241.7109375	-104.10427856445312	16551.8515625	22949.349609375	23082.544921875	31991.64453125	30163.6171875	31452.259765625	31264.671875	23310.0546875	30711.267578125	29881.90234375	29223.0390625	24810.91015625	1608.5135498046875	10251.0478515625	17660.4609375	26577.8828125	-1534.7490234375	11100.474609375	28721.4921875	31065.306640625	34384.9140625	34512.53125	30830.45703125	29656.310546875	28881.427734375	29595.796875	30077.09765625	29732.064453125	32213.365234375	33160.52734375	34473.17578125	30406.330078125	25458.822265625	31967.47265625	31877.73046875	29487.130859375	33782.53515625	32610.78125	31458.220703125	30365.541015625	32346.505859375	30856.31640625	30625.26171875	36935.40625	33727.91015625	34162.30078125	32048.521484375	30132.373046875	43716.41015625	35789.37109375	32254.78515625	33311.50390625	30243.572265625	30598.650390625	34305.28125	31255.427734375	30829.724609375	29468.208984375	31224.13671875	30562.9609375	32292.05078125	34613.22265625	32546.279296875	32336.267578125	35001.02734375	31320.923828125	24926.66015625	30319.58203125	31465.662109375	30143.28125	32792.3046875	33523.08203125	32896.6875	30270.7578125	30972.01953125	32336.205078125	30788.990234375	35217.19921875	34255.171875	34121.91015625	31148.119140625	30090.08984375	40132.78125	37057.65625	31019.87109375	31392.443359375
1200	1500	16844.80078125	21731.287109375	17208.1328125	24049.705078125	19429.408203125	23108.841796875	29271.080078125	20221.095703125	16600.435546875	24874.884765625	1494.9847412109375	16534.462890625	24235.03515625	-3015.16748046875	16643.943359375	21479.69140625	17860.03125	24776.8671875	21501.271484375	22915.869140625	26984.78125	17232.4921875	25019.15625	20551.486328125	25374.001953125	19458.478515625	1448.5589599609375	10147.5546875	14154.1259765625	23123.470703125	-747.4874267578125	11056.251953125	24238.23046875	23746.65625	27401.39453125	25818.142578125	24392.15625	24310.537109375	22321.35546875	23807.23046875	25572.501953125	23268.998046875	26171.279296875	25787.416015625	26646.919921875	23891.533203125	21161.357421875	24891.97265625	25288.150390625	24525.017578125	25742.224609375	26098.193359375	24258.357421875	21716.35546875	25035.640625	25099.1484375	23990.84765625	29159.662109375	26619.859375	26960.435546875	25343.056640625	23539.3125	33780.13671875	29244.05078125	26557.97265625	27034.810546875	23339.95703125	25149.173828125	26462.849609375	25751.708984375	24511.28125	22906.435546875	24633.6171875	24432.0390625	25678.515625	27597.287109375	26067.36328125	26080.623046875	28454.677734375	24596.263671875	21380.58984375	23923.189453125	25035.8359375	24259.203125	25570.1015625	25302.234375	25020.958984375	24543.97265625	24116.974609375	25079.03515625	23868.90234375	28161.9140625	27075.30078125	26363.3203125	24787.90234375	23457.453125	30724.779296875	29079.36328125	26788.275390625	26599.576171875
1500	1800	16475.8515625	19989.2109375	13718.9951171875	19609.53125	15816.8896484375	17153.931640625	25425.107421875	16974.994140625	13801.9619140625	20383.63671875	833.4877319335938	12649.681640625	20873.02734375	-3129.764892578125	16301.904296875	19849.474609375	14409.5078125	20545.484375	17043.060546875	17719.896484375	22728.794921875	15463.873046875	20632.66015625	16305.3291015625	22143.99609375	11091.8291015625	1027.2740478515625	10191.611328125	11266.0146484375	20782.998046875	-785.02197265625	10871.5478515625	18759.794921875	19650.912109375	22643.455078125	22378.95703125	20278.25	20924.009765625	18945.947265625	20133.48046875	21305.81640625	19381.396484375	22528.1796875	22468.93359375	22858.626953125	19553.8125	15622.2666015625	20508.833984375	21279.92578125	20035.07421875	22324.53125	21855.693359375	20528.97265625	20652.3671875	20779.716796875	20824.716796875	19865.9296875	23645.19921875	22419.04296875	22839.3359375	20944.216796875	19784.0859375	28412.296875	24163.189453125	25996.638671875	22704.796875	20044.9765625	22555.685546875	22600.001953125	20961.884765625	20231.1171875	20194.734375	20392.37109375	20761.333984375	23177.71484375	23631.384765625	22175.48046875	22814.35546875	23339.02734375	20191.060546875	17836.458984375	20394.607421875	21200.953125	20650.6328125	21908.71875	22038.419921875	20909.828125	20052.466796875	20027.962890625	21567.41015625	19990.798828125	23388.37109375	22964.193359375	22338.357421875	20569.1171875	19690.248046875	25478.89453125	23390.279296875	20454.857421875	20979.1484375
1800	2100	15904.7275390625	18183.666015625	11302.138671875	16489.25390625	13106.361328125	13568.349609375	22413.529296875	14932.595703125	11230.55859375	16498.12109375	914.2646484375	8877.9580078125	17739.353515625	-7030.3173828125	15655.138671875	17867.248046875	11851.7109375	16579.7890625	13413.701171875	14694.03515625	20028.404296875	12530.2412109375	16541.0625	9964.8193359375	19042.642578125	21906.375	751.845703125	10036.013671875	10828.1376953125	18866.017578125	-488.3910827636719	10472.5732421875	17470.921875	17477.75	19341.8125	18884.20703125	17762.09765625	19068.94140625	15977.2685546875	17231.873046875	19789.326171875	17118.25390625	18700.74609375	19369.13671875	19943.482421875	16909.109375	14233.419921875	17927.390625	18541.94921875	16667.779296875	19064.625	19208.5	17610.861328125	15657.9892578125	17983.21875	18338.01953125	17515.650390625	20479.25	19305.8125	19880.166015625	18415.07421875	16821.76953125	23292.65625	21743.34375	20914.947265625	19747.72265625	17849.490234375	18839.63671875	19292.701171875	19475.576171875	17486.3828125	17441.220703125	17873.171875	17937.80859375	19326.525390625	21175.00390625	18283.7890625	19753.658203125	20783.072265625	17231.607421875	15469.515625	17726.2890625	18544.46484375	17326.275390625	19465.16015625	18941.048828125	18059.111328125	17744.62109375	17158.958984375	19014.9375	17738.0	20286.525390625	19309.66796875	19216.728515625	18141.431640625	16890.744140625	24198.228515625	21428.607421875	19489.09765625	18783.46484375
2100	2400	15256.109375	16154.9267578125	9968.970703125	13886.912109375	11359.873046875	11669.091796875	18381.126953125	12887.783203125	10213.9345703125	13761.7392578125	1306.6077880859375	4777.4599609375	15975.1015625	-1284.9365234375	15003.9453125	15727.064453125	10418.2431640625	14174.1103515625	11105.80078125	12420.2021484375	17442.75	10597.88671875	14721.7587890625	6223.76611328125	17200.818359375	10723.0732421875	407.2782897949219	10042.98046875	8442.9404296875	17194.478515625	-524.904541015625	9855.1103515625	16597.609375	15256.1142578125	17825.658203125	17941.716796875	13459.2470703125	18310.466796875	13955.7529296875	15014.6943359375	16800.58203125	15219.1611328125	16703.91796875	18337.892578125	18388.650390625	15589.12109375	14286.2197265625	16466.7109375	16522.669921875	17006.447265625	17191.072265625	15974.966796875	15179.8896484375	14161.3681640625	15806.2626953125	16535.283203125	16983.126953125	18519.169921875	17100.103515625	17518.255859375	15781.7333984375	14847.1318359375	22976.732421875	19094.80859375	19864.89453125	18516.21875	16464.70703125	16707.203125	17449.76953125	17193.484375	14738.458984375	16134.767578125	15942.05078125	16047.1318359375	19411.654296875	19225.087890625	17156.310546875	19427.16796875	18795.943359375	15826.138671875	15412.6015625	15802.6513671875	16989.162109375	15427.634765625	17406.119140625	17415.357421875	15603.2490234375	16539.005859375	14704.302734375	16911.345703125	16279.3916015625	18308.458984375	17226.94140625	17667.806640625	16446.435546875	15611.2373046875	20295.033203125	19231.87109375	17427.287109375	16982.484375
2400	2700	14665.6328125	14607.654296875	8634.916015625	12424.01171875	9487.3076171875	10783.853515625	14321.5107421875	11343.763671875	9106.9306640625	12908.419921875	1746.7701416015625	2916.565673828125	14540.4443359375	-8414.4814453125	14253.515625	14440.11328125	9208.146484375	12362.283203125	8880.0673828125	11629.685546875	14272.482421875	9756.953125	12510.1669921875	2836.092529296875	15000.435546875	18417.638671875	419.3659362792969	9854.6689453125	8256.2197265625	15720.7197265625	-588.1268310546875	9642.83984375	14868.1318359375	14477.0009765625	14982.517578125	16689.984375	12541.4228515625	17099.841796875	12559.6630859375	14823.9033203125	16820.6015625	14121.951171875	16002.5322265625	16492.0234375	16730.240234375	13529.6240234375	12082.3046875	14909.01171875	15554.900390625	15570.3818359375	15391.431640625	16243.9853515625	14255.3037109375	12994.716796875	14473.298828125	15043.314453125	14885.26171875	16607.7265625	15504.474609375	16292.5361328125	14164.7568359375	14076.7177734375	18204.1953125	17078.115234375	17816.412109375	16312.2265625	14506.4560546875	16299.0771484375	16109.4755859375	14702.447265625	14169.4775390625	15760.037109375	14904.6533203125	15412.369140625	17570.189453125	18507.421875	16633.14453125	17617.935546875	18253.095703125	14652.1484375	12403.4248046875	15213.564453125	15950.79296875	15884.0302734375	16384.474609375	14261.8447265625	14564.5380859375	14987.99609375	13962.41796875	16710.9453125	13757.35546875	16776.03125	16340.345703125	15719.806640625	14747.8017578125	14573.0029296875	18377.708984375	17214.76171875	18113.181640625	15455.55859375
