frame_start	frame_end	parasubiculum	HATA	fimbria	hippocampal_fissure	HP_tail	presubiculum-head	presubiculum-body	subiculum-head	subiculum-body	CA1-head	CA1-body	CA3-head	CA3-body	CA4-head	CA4-body	GC-ML-DG-head	GC-ML-DG-body	molecular_layer_HP-head	molecular_layer_HP-body	Lateral-nucleus	Basal-nucleus	Central-nucleus	Medial-nucleus	Cortical-nucleus	Accessory-Basal-nucleus	Corticoamygdaloid-transitio	Anterior-amygdaloid-area-AAA	Paralaminar-nucleus
0	30	0.18897	0.39019	3.68949	2.5613	15.26108	0.63377	7.912	2.90062	14.90665	1.42131	9.53923	3.04466	7.40938	0.29927	6.39233	0.5827	6.90386	1.42289	8.27173	3.75741	1.17663	4.06748	7.49173	4.02632	0.92851	0.64265	15.76558	0.40276
30	60	1139.14478	656.71598	1007.96947	1116.6686	670.37545	1069.54104	1103.94348	886.41669	1347.74869	817.485	839.19153	1250.83066	942.40343	950.48476	1233.60721	885.98299	1218.48728	918.35266	1092.62989	885.08613	990.99497	692.90043	593.59793	436.36525	915.58212	945.01315	1203.18427	984.26996
60	90	11411.72825	6769.06137	7894.31111	9388.27662	8724.76169	10874.98891	10045.98658	8906.09066	6746.45864	8375.49759	5400.77451	8607.04085	6723.64319	8583.96464	7313.10828	8964.92	7170.07604	8986.7286	7334.48133	8070.3528	8052.35965	6766.45558	6282.09297	7424.88581	8800.6683	9247.27275	10719.61793	9082.80851
90	120	19397.27227	16066.31753	20776.32644	19234.33665	19474.30475	19607.97546	21299.88737	20153.2922	16345.30217	17982.6007	15217.00413	21189.4444	18067.2141	19504.75034	19387.27682	18954.43302	18848.09882	19622.96231	18292.66749	18606.95691	18352.52162	16663.1269	16890.56367	15009.09802	15573.17061	16388.36424	24781.60121	19852.05767
120	150	28815.59516	25459.53083	32505.36086	31756.41304	31747.20692	31315.3577	33390.04092	29662.08475	29271.71202	27691.2848	24263.53539	30837.17383	29494.05426	31705.24573	31784.73049	30660.18144	30938.82354	30211.04555	30302.35976	28683.39542	30877.17628	26652.50771	27602.85065	25627.49349	27536.71383	26873.5925	40224.61837	29848.67555
150	180	32839.68729	29191.80741	40538.48733	38400.04193	37458.982	38672.28303	39675.08055	34923.18241	38374.29442	35636.61653	30184.59063	35531.14772	33638.49576	40666.46997	38004.39569	38589.29413	38052.4473	37534.56223	36865.56475	38155.83234	39962.06155	32993.43601	33135.82682	30693.63686	35848.32325	34004.33674	42081.15767	38358.87368
180	240	33752.86652	30862.06269	39783.06152	39737.14064	40861.89503	38810.04978	40274.51543	38754.53994	38202.96888	39012.61195	34823.7624	39078.46447	37289.86135	41613.29029	40318.03757	39937.08341	39861.89539	41017.10618	38723.78424	41117.7883	41636.09875	40319.67558	38634.9987	36831.11466	40686.34442	35347.14962	45772.60807	38681.20065
240	300	31921.65874	29269.19416	39358.03602	38723.34673	37604.81269	39022.51845	39982.7484	41584.39848	39777.52784	37021.54225	35562.94993	37515.27009	36606.1043	39477.76807	40906.29266	37950.3985	40702.10279	40173.87019	39358.17022	42578.28584	41490.4875	39732.56815	39724.80065	34722.78371	38541.89275	32295.84021	42749.4085	38697.80687
300	360	34429.77373	32110.61776	35199.89451	39288.92251	35293.65243	41862.30597	37545.7586	40773.11575	38307.20025	37589.35137	33120.99431	36157.34768	32922.15668	40415.97373	37102.4938	38888.65972	37080.68565	40609.76781	36302.38324	40314.57897	40471.27114	33707.42737	34714.33672	33660.22041	37928.46545	34907.55689	41173.721	39814.61271
360	480	27038.46472	29718.37801	34444.02126	33863.96807	33405.69861	32429.88219	34668.78239	34884.38903	34458.46249	33921.229	31146.36121	33257.6596	31740.38733	36661.12481	35111.15965	35187.48466	35019.57044	35669.39479	33926.90611	38995.15246	38371.20374	35123.26748	34523.5487	34200.76259	37601.45909	34444.92104	39073.94875	35201.67963
480	600	25766.87899	23979.1689	30494.62398	31438.75779	28629.36761	31781.74311	31720.55546	32576.98323	31187.97206	30822.36675	27024.71274	27904.13959	26455.92971	32352.52121	30302.84207	31271.48163	30616.51696	32545.43139	29618.18158	35435.11027	33763.27243	30656.32833	31164.52396	28148.16312	30543.21773	28100.99082	35665.36216	32175.62885
600	900	21215.60354	22975.17674	25513.32717	25245.52003	24073.67622	25541.99517	25334.31598	26870.13735	26176.47819	25589.51781	23025.19154	23991.91321	24151.27587	27010.89073	25939.40392	26273.66729	25864.40004	26641.11254	25093.31396	30601.29581	29234.21391	26191.26542	27950.30091	27731.2406	27517.80301	24924.89809	30301.86156	27222.22978
900	1200	16987.66836	19369.60784	20987.48113	20371.31547	19656.97495	20242.54342	21012.04553	21497.66323	20583.96401	20668.29577	19625.97125	19206.39159	19760.61024	21294.13093	20651.10949	20718.312	20761.00143	21273.56121	20336.98544	24291.38837	23061.62973	22207.48042	24986.92552	22490.11914	22465.47612	21017.39693	23371.18022	21752.03481
1200	1500	14577.34822	17363.33325	18029.68272	17122.48679	16570.02701	17304.30983	17451.06797	18644.89827	17654.57321	17701.6876	16538.34125	16753.5932	17101.99844	16848.43153	17508.31189	17052.53148	17597.72949	17954.84448	17212.18343	21052.50938	18426.41281	19553.46233	21388.46289	21156.03892	18911.22856	17656.69028	19176.65181	17644.87167
1500	1800	13404.4844	15378.57038	15506.03907	14668.76919	14442.39523	14638.44471	14752.2114	15296.67354	14729.76634	15173.61479	15203.18623	14717.57215	14396.17614	14531.07213	14369.39389	14501.59659	14769.84196	15159.43202	14622.78968	17617.91241	15501.23141	17360.37628	18315.76263	17280.95168	15848.34785	15212.78099	15298.78223	15059.6389
1800	2100	11079.2122	13538.97174	13571.65867	11939.49966	13166.53043	11859.30022	13037.28298	14102.88794	13339.55633	12408.0443	12766.43134	12293.68931	12879.6348	11791.694	12683.31392	12095.91471	12843.21514	12201.21115	12863.46386	14140.69738	13621.20677	15219.98183	15756.70286	15475.20493	14322.34503	13566.62347	13706.3056	12353.40458
2100	2400	9656.20503	14206.09966	12807.55698	11000.16748	11877.35991	10710.7488	11944.64143	12560.47327	12479.60038	11104.22582	12978.61155	11551.26635	12559.27873	10641.8031	11837.1041	11194.6785	12062.13967	10854.48282	12201.68489	13511.72797	10789.2821	13482.03629	15957.73704	15876.73575	12020.79348	12071.01471	11543.2735	10754.2681
2400	2700	8271.03593	12019.14101	11462.0186	9931.67474	11222.70769	9496.27721	10894.5282	10801.26391	11005.62756	10532.37044	11027.43429	12164.69853	10917.07738	10344.28177	10404.76138	10636.7594	10630.0791	10312.92733	10730.94152	12069.23672	10284.74854	13503.59216	12750.61452	13959.20671	11577.56377	11173.98787	10644.75034	9644.53073
2700	3000	8470.11333	10688.65247	11463.3442	8939.77658	10629.6281	8175.19394	9415.72794	9617.52603	9424.34785	9664.50954	9699.1655	9885.32774	10921.68129	8895.23029	9702.38499	9257.60104	9715.54595	9060.46743	9666.11392	11020.22049	9698.133	12865.20007	12542.62513	12733.80639	10270.01779	9891.82058	10418.53237	8305.28177
3000	3300	7709.40863	10253.76201	10856.25663	8747.27152	9594.10144	8237.76931	9264.81597	9176.23811	9431.89628	9329.09612	9261.55425	9958.85309	9920.68269	8677.13383	9307.79116	9145.83436	9432.40567	8754.09542	9345.77901	10539.26757	9123.69143	10264.95852	9043.80462	10323.52235	9056.82431	8712.41758	8519.05698	8744.4867
3300	3600	7411.81642	9162.48049	8778.72101	8259.99304	8427.11645	8296.7197	7798.03457	8881.73802	8293.05074	8496.67503	9596.10945	8460.60038	9064.99101	7936.62108	7957.67066	8519.73744	8081.60135	8337.8865	8256.12264	8853.35086	7653.2321	12729.38507	11217.63509	10682.90806	8864.32356	8397.23895	8904.7905	6648.70373
3600	3900	6366.6815	7008.20813	9089.88283	7412.01382	8917.22238	7112.9942	8532.50665	8132.94393	8795.96932	7658.71599	8624.67117	7396.95779	8350.63355	7026.56613	8363.34247	7481.15759	8418.54431	7490.06986	8382.81609	9274.7347	8024.01398	9315.1581	8742.70039	8616.96045	7270.02156	7112.12141	9344.25361	7729.37754
3900	4200	6188.45326	8744.56143	10102.78288	8047.95316	8160.34235	7550.92966	8519.79029	8410.32677	8592.34124	8074.07278	8034.01751	8692.20304	9158.07941	7794.70365	9056.05699	7859.59013	9082.66358	7956.24163	8672.42021	9017.58431	7399.19492	9604.90995	9160.86751	9187.33702	8473.73059	7890.65722	6781.79501	6875.86173
4200	4500	6894.68891	7727.78529	7902.85066	7279.37304	7610.24965	7484.45672	7495.44848	8146.54668	6856.17398	7330.24406	8304.28488	8428.00758	8239.52502	6922.82674	7156.901	7280.1415	7178.36395	7601.37663	7495.33777	8742.04754	7479.74023	7720.69274	7973.96387	7555.15242	6738.28584	6704.33062	8461.45949	8137.95483
4500	4800	7094.9263	7363.18763	7874.77593	6758.07155	7747.32082	6230.6001	6682.93926	6381.78049	6658.09497	7328.33666	8449.99669	6809.85226	8001.5529	5733.58358	6847.01695	6219.61667	7070.31606	6398.38993	7286.73094	8092.633	7455.81443	7799.22271	7134.90898	8037.90252	7788.25451	7160.30733	7245.94158	6576.49262
4800	5100	8850.19638	8476.6485	7952.33669	8007.96608	8094.51317	8360.92286	7987.4654	7774.56695	7674.86832	6758.19402	7458.91199	9011.15575	7562.31615	6941.25091	7124.97009	7113.1658	7169.00381	7142.35794	7318.08762	7156.04676	7261.045	7857.03247	6774.27301	8897.1182	8116.60585	7300.55477	9131.2849	7899.50169
5100	5400	5031.35785	7626.68264	7675.79084	6264.96231	8793.03511	5438.59597	7757.10539	6596.02467	7872.34937	6810.15204	7916.24414	6521.55779	7717.29308	6306.62702	7446.28833	6782.66487	7620.98076	6488.40515	7670.86796	6869.31094	7064.93538	9532.89515	6592.56686	6544.86797	7229.82462	6339.28905	6688.72424	5872.30137
