frame_start	frame_end	parasubiculum	HATA	fimbria	hippocampal_fissure	HP_tail	presubiculum-head	presubiculum-body	subiculum-head	subiculum-body	CA1-head	CA1-body	CA3-head	CA3-body	CA4-head	CA4-body	GC-ML-DG-head	GC-ML-DG-body	molecular_layer_HP-head	molecular_layer_HP-body	Lateral-nucleus	Basal-nucleus	Central-nucleus	Medial-nucleus	Cortical-nucleus	Accessory-Basal-nucleus	Corticoamygdaloid-transitio	Anterior-amygdaloid-area-AAA	Paralaminar-nucleus
0	30	0.62045	0.26719	4.18321	7.85827	8.0852	0.8127	5.65465	3.96792	15.95245	5.46148	29.9807	2.63827	7.23175	1.97063	8.41904	1.90941	10.92765	3.08117	12.4733	5.44113	1.02254	2.30361	4.47548	2.23413	0.57912	0.45639	9.83665	0.33402
30	60	1053.73873	648.56443	875.94	951.55246	650.35157	910.27541	1144.65639	771.97546	1099.66034	732.1079	784.32545	1006.90581	891.56333	743.94416	1056.78232	693.97647	1023.39159	732.43353	999.38452	735.4862	972.19871	653.76131	574.2381	471.83231	884.49515	1003.12514	1450.57423	939.88248
60	90	11823.18337	6869.80358	7451.92618	8613.21296	8471.21182	9826.63491	9325.44874	7884.17248	6840.50088	8154.35521	5560.05447	8157.06359	6628.43096	7840.5127	7296.20961	8154.32796	7086.18726	8239.83867	7220.92173	7809.03387	8015.545	6731.97905	6167.41153	7274.28213	8150.65697	8834.4844	11059.87256	9014.56226
90	120	17665.50119	15685.18864	20031.8742	18759.94572	18002.71475	18109.08702	22544.08206	18153.73426	17389.69084	17373.80923	15574.61474	19852.05108	17496.64035	18388.80345	18961.36484	17843.09139	18813.82408	17810.75574	18576.97314	17681.11221	18592.93163	16087.9829	16196.70106	14933.24666	16469.90387	17213.18395	24678.27588	18506.58361
120	150	31783.81752	24513.45948	31353.72726	31702.76595	29863.77188	33877.36177	33070.57391	30686.55792	29975.9286	29682.97427	24523.14335	32541.72288	28893.52594	33741.9783	31431.03325	32996.4452	30723.00429	32576.84765	30140.23608	28725.39144	31133.67667	26041.19149	25056.38386	24269.87864	27887.31401	27206.36559	37930.48027	31653.61148
150	180	35445.26974	32204.5837	38647.03607	38209.67018	37767.03185	38500.23951	38600.7976	34743.25382	37092.53954	35602.29775	31308.16437	37276.23084	34566.51934	39207.5222	38264.81467	37627.98891	37728.982	36805.61231	36744.95215	36689.98019	39387.17855	34725.72977	31833.49497	30512.70305	36922.24597	35624.07677	42883.92578	38075.71683
180	240	37231.07192	32858.12124	39430.75208	39717.49163	39702.8684	40698.3328	40765.49722	39824.74827	39180.4729	39551.63185	34388.66973	39225.21287	37545.40252	41246.48586	40590.78038	40228.94932	39978.16052	41546.90457	39004.24888	41759.0868	42285.19511	40298.74936	36282.94253	35900.81862	40823.05206	35499.52807	43455.82604	40347.75817
240	300	33507.95605	31288.11315	39495.28594	38465.2232	37381.42249	38803.09303	39476.72798	40163.51828	40117.62531	37366.51428	34111.14597	37652.6043	36644.88546	39418.02482	40756.10155	38300.37662	40375.70287	39717.55424	38954.75782	40942.68309	42448.33985	37456.71926	35330.73122	35251.81746	39785.67216	35136.96505	42375.64909	40405.53852
300	360	34974.03686	32101.06334	36804.7128	39307.15619	36130.12092	41349.85487	39186.99413	39969.44842	39187.00124	38128.85691	32867.88694	37530.1874	34206.71086	41730.04323	38288.74464	40156.84384	38220.26642	40873.33761	37260.63235	39900.29595	41968.65197	33904.35065	32569.30634	32727.90355	38257.77086	35407.82633	41387.43717	41008.19715
360	480	30295.6071	30171.45557	34357.32506	34447.38167	33250.87871	34988.25778	35801.81254	35286.62767	35429.08268	34325.15894	30306.86254	33365.54454	31132.3759	37205.09016	34858.73957	35978.168	34909.82145	36299.57958	33940.50697	37884.4201	38869.95112	34513.5854	31530.39694	33611.11985	37315.98501	33697.52166	39012.11276	35697.65084
480	600	27022.90095	25506.28661	30233.26739	31096.71718	28757.47472	32073.3128	31498.39749	32307.42661	31682.07954	30815.0056	26752.58645	29137.2519	26836.67401	32783.83827	30670.29171	31709.3713	30797.41066	32477.31292	29858.91832	34868.693	35163.08764	30275.08273	29599.36238	28372.66166	32023.39202	28567.78458	34665.0791	33322.41271
600	900	22409.28325	22979.30027	25500.20736	25482.70197	24046.15186	26450.67794	26164.19464	27480.15668	26588.89686	25651.75587	23315.76571	24018.55719	23906.40368	26918.06284	25894.038	26282.6423	25923.97818	27022.9577	25372.71524	30050.07685	29625.30937	26188.8049	26328.00098	27268.20759	27694.36588	24935.29584	29826.72464	27841.80808
900	1200	18170.24269	19226.21694	21599.33225	20786.93912	19707.24187	21060.8673	21274.13003	22041.11212	21568.3102	20664.64915	19725.07988	19426.18677	20130.98635	21237.2484	21367.72251	20911.2214	21440.30659	21448.32377	20907.27556	23750.29909	23476.77403	22586.57965	23455.31115	22954.34251	22511.34413	20405.84799	23237.21172	21838.3113
1200	1500	14806.00361	17032.94017	17928.16885	17142.89702	16702.70989	17355.05171	17870.86699	18820.51523	18069.85143	17241.6108	16399.0846	16479.75206	16547.43681	17235.30652	17344.87599	17268.09487	17536.77252	17743.43893	17205.39653	20879.00001	18546.79164	19342.10108	20478.12477	20498.19997	18349.0105	16713.1323	19327.49531	17761.95439
1500	1800	13997.72762	14979.07966	16176.61867	15026.98987	14808.71909	15560.22803	15132.64746	15887.76685	15422.54646	14803.47354	15007.86856	14721.73539	15042.4327	14602.43099	15157.37557	14584.60523	15341.17994	15108.92186	15127.23558	17362.91787	15871.85613	17162.37279	18226.39926	17322.98308	15901.99665	14990.37604	15421.30241	15074.17873
1800	2100	11047.67301	13543.77568	14182.76398	12504.17602	13384.60521	12420.78714	13299.90075	14226.25024	13574.50681	12493.33894	12838.35166	12448.28422	13358.24554	12287.3111	13074.01616	12460.1741	13204.78276	12516.88586	13103.8998	14519.21881	13272.93489	15135.03237	15250.2565	15471.09959	13654.66053	13066.84271	13537.445	12057.70113
2100	2400	9732.97914	13154.63029	13338.91407	11345.7497	12309.3782	10853.6944	12026.5055	12473.67622	12679.71389	10846.33218	12417.45109	11455.86519	12465.34368	10995.03572	12026.48525	11173.45538	12241.19375	10839.09471	12188.37043	13516.11489	11178.32704	13784.92672	14866.35498	14669.61908	11979.6893	11617.01993	11784.54211	10226.31829
2400	2700	8497.62366	12318.12422	12376.7032	10202.77067	11433.77651	9617.91699	11062.90919	10790.93161	10995.39219	10280.46031	11179.5283	11209.12468	11562.66929	9947.68819	10981.78879	10186.97081	11149.0598	10073.11411	11082.63481	11881.0464	10144.56058	13010.99922	13030.32726	14196.60917	11259.61294	10890.37548	10836.9435	9311.84285
2700	3000	8595.89392	10296.93277	11998.29532	9320.49452	10563.06005	8934.37597	10081.44371	10126.0778	9925.00793	9511.3634	9622.49915	9623.85579	10710.23645	9112.78211	9980.6876	9361.74444	10099.68691	9220.9597	9921.4872	10798.17883	9247.07596	11869.91705	12460.15005	11954.24352	9757.33141	9826.0606	10317.45261	8519.13419
3000	3300	7815.10101	10094.55871	11081.53324	9172.76322	10097.20827	8623.67907	9339.70275	9717.93425	9842.80517	9139.62489	9879.07965	9482.30591	10385.33776	8865.23571	9916.73073	9190.25726	9993.50383	9081.18126	9790.85557	9919.09382	8253.95947	10328.83357	9633.55491	10670.05688	8490.68181	8300.19627	8300.92343	8168.35722
3300	3600	7165.93975	9440.12927	9338.37373	8656.36866	9173.14349	8318.35396	8598.31516	9156.73569	8609.82706	8265.56221	9891.95736	8724.39554	9321.13434	8265.14721	8336.75796	8454.70488	8519.4493	8339.83331	8782.70964	9396.49873	7480.22987	12001.11969	11195.85389	10553.82858	8605.78314	7950.78981	8811.99845	6766.60756
3600	3900	6844.86383	7875.19795	9611.41669	7869.90998	9295.05906	7443.63169	8248.18449	8122.3769	8552.50847	7599.29082	8784.11037	7726.32815	8741.39814	7639.35005	8491.13234	7807.9426	8600.95661	7537.0664	8413.59395	8626.19903	7604.86897	8861.24799	9096.29327	8528.44189	7228.14447	7143.30684	8769.55717	7265.87498
3900	4200	5987.54339	7859.80187	9274.55002	7805.49959	8507.88361	7393.58271	8312.90938	8378.76667	8264.37336	7577.44667	8250.3716	8365.92424	8643.74628	7399.61249	8411.54417	7397.64611	8480.17116	7616.33212	8345.78954	8862.87257	7439.48662	9114.10238	9216.40212	8866.38442	8147.78418	7473.91818	6658.21436	6986.05851
4200	4500	7418.38568	7890.78286	8775.23286	7628.77248	7982.32143	7761.16246	7420.12628	7909.67555	7292.28826	7703.11368	8369.84755	8168.617	8252.12906	6902.60323	7756.92647	7272.34508	7873.39075	7614.81001	7750.43058	8436.49463	7499.65614	7319.49597	8225.32014	7274.34615	6899.70137	6941.28401	8221.22372	7813.16099
4500	4800	7639.78351	7225.09716	7890.07856	7181.97589	8314.3305	7618.30547	6856.52467	7262.02453	7401.26569	7239.31419	8606.39626	6686.48107	7757.91123	6240.59519	7276.51563	6614.44238	7536.92738	6956.81359	7578.065	7628.62427	7396.74708	8876.57948	8017.06201	7939.25738	7689.75125	6867.09082	6636.39251	6936.35489
4800	5100	8286.65386	7681.40804	7558.20572	7599.96027	7758.0887	8328.80067	7695.72579	7328.13253	7916.9601	6646.59453	7369.36563	7959.03177	7301.28539	6895.65152	7098.82177	6823.71881	7149.58806	6874.504	7295.28097	8322.13386	7086.32425	6945.73193	7680.49746	7865.03608	7171.11856	7046.68493	8482.29362	7072.93523
5100	5400	5430.56908	7524.05838	7403.06483	6507.7818	8227.25208	5991.32039	7647.92448	7029.40883	7446.55774	6465.54302	7852.94293	7331.82044	7103.04115	6516.99886	6988.69386	6630.56532	7188.30574	6467.72838	7341.41375	7209.66764	6212.36343	8743.0598	6937.78206	7308.19527	7067.03684	6391.20083	6018.21212	5513.1812
