frame_start	frame_end	parasubiculum	HATA	fimbria	hippocampal_fissure	HP_tail	presubiculum-head	presubiculum-body	subiculum-head	subiculum-body	CA1-head	CA1-body	CA3-head	CA3-body	CA4-head	CA4-body	GC-ML-DG-head	GC-ML-DG-body	molecular_layer_HP-head	molecular_layer_HP-body	Lateral-nucleus	Basal-nucleus	Central-nucleus	Medial-nucleus	Cortical-nucleus	Accessory-Basal-nucleus	Corticoamygdaloid-transitio	Anterior-amygdaloid-area-AAA	Paralaminar-nucleus
0	30	624.13783	375.09972	270.5873	445.287	333.48611	497.90874	410.44298	319.24385	287.05972	461.65804	204.68797	300.84468	220.25175	315.50611	292.50409	452.11874	283.80965	405.84347	298.81455	294.74864	361.47652	307.75159	157.25478	138.99882	374.11764	360.81756	965.69418	298.93169
30	60	5385.16702	6043.51605	3785.77671	5352.6432	4862.95982	5500.18055	5243.19637	4854.36472	4741.10959	5034.47612	4550.86257	5567.05116	4008.78093	5483.03697	4463.83777	5423.8943	4559.45391	5130.52727	4607.29663	3705.22894	4651.48678	4872.63809	4679.21606	4970.4456	5295.24318	5999.43217	6125.20388	4908.57715
60	90	14700.1307	12846.25487	10402.73982	14884.76267	12508.24954	15609.63386	13348.51027	12964.56029	13378.33219	12673.58619	12356.57066	13902.88532	11589.53925	14090.58155	12494.2065	13882.41212	12882.02469	13423.16529	12965.31901	12044.81277	13047.50197	12498.77581	10862.16113	11284.24509	14104.43708	12726.0298	14060.17076	11825.32613
90	120	20755.95402	18391.04865	16630.4171	23474.76537	20336.35495	23932.34274	22183.21117	21858.48086	21099.1469	20927.91451	19434.43068	26217.27107	18965.33856	26171.25809	20503.50194	24576.69771	20591.73891	23367.99637	20560.78017	20234.03592	21256.67245	19260.62886	17235.28857	17102.92551	19463.86388	17112.80972	21603.14056	21000.09357
120	150	25717.71825	21048.29436	23757.27712	28389.06117	26271.96385	29379.49967	24203.97629	26533.412	26876.40541	26464.93833	26511.3929	30826.09668	24169.09032	31722.52356	26983.24759	29976.03627	26889.64171	28307.10116	26417.6649	25955.08478	27354.67572	24177.89609	24439.39917	23890.9491	25065.54302	21454.85119	24919.55698	28509.95267
150	180	25643.26098	19613.1965	22589.27599	30093.44065	26050.16215	31130.00953	27124.42638	29680.86613	28608.67204	26921.69861	23972.41576	27481.20119	23649.04607	30454.73856	26630.40229	28952.24326	26558.78427	29981.61137	26565.00776	30808.23947	28246.61452	26378.03281	23085.94214	22850.50438	24919.74207	20998.88079	23078.80428	29698.20035
180	240	23915.30015	24415.80193	21126.76758	27554.42646	24659.83639	29327.193	26103.88092	29352.98893	26347.4144	26943.89409	22964.21605	26773.4649	21235.66039	29662.77235	23728.32912	28308.19374	24071.08041	29131.33491	24659.65246	27530.91047	28541.4762	23466.74756	22442.40723	22914.66767	26654.10286	23744.61957	23822.94733	29030.54876
240	300	21396.5204	21481.24097	19888.6431	25183.41812	24656.66136	26349.16661	24011.84685	28063.6755	25973.35003	25489.91907	22952.10821	22992.80413	19221.97565	27650.03382	22744.62211	26468.7115	23396.81388	27726.14807	23678.91221	26533.85464	28954.65174	25288.44585	23304.88379	23467.37488	26967.86404	22669.76285	21982.26044	28363.37777
300	360	20919.54521	20004.98887	18291.91579	23892.67803	21096.25317	25188.64122	22020.39952	24440.03505	21883.29503	23710.17752	20983.04754	22519.29391	17532.58688	24567.67555	19120.95063	24176.09199	19861.13989	25041.09428	20603.32874	24583.8973	25821.61912	22121.95522	22199.34375	22098.79457	23807.2163	20412.72082	22951.2438	25575.47211
360	480	18131.43666	18536.27603	15940.69171	21407.31831	17479.13392	23647.56684	19283.39036	24599.09705	21775.81988	21413.34802	18787.18768	17974.68734	16287.75618	22030.45929	18519.69981	21552.51934	18916.40668	22709.59364	19141.99025	24520.6156	24254.26214	21373.26118	21257.68091	21072.85872	23879.76165	20276.06051	19451.66447	23743.09906
480	600	16043.53471	16029.54164	15223.31126	19667.88953	16853.57834	21108.64103	16983.19981	22405.80785	19668.61081	19290.56743	16569.10597	17421.71472	14467.81232	20582.36576	17035.63814	19717.22339	17461.47166	20801.46911	17254.002	23169.5671	22512.93513	19436.53152	18533.6051	18454.66758	20117.44924	17366.42746	17508.88847	21319.25709
600	900	13608.25797	13804.75074	12313.64498	15597.95311	13076.04146	17348.89036	13835.04333	17379.49954	15100.92824	15571.08298	13602.43552	13663.78758	11516.78541	15897.37057	12869.06768	15684.51469	13262.23859	16489.79872	13486.16156	18232.66613	17217.64458	16805.20618	16699.04504	16051.43226	15961.43235	13805.58778	15900.79799	16358.19011
900	1200	10323.84755	11579.53535	10003.94993	11995.27869	10759.59247	12864.05085	10992.20396	13793.90621	12143.09071	12454.1367	11082.77863	10508.30839	9488.88609	12396.16228	10347.88627	12291.67795	10701.38321	12873.28179	10968.22471	15072.58214	13285.30886	13376.87661	13985.6134	13547.59103	12477.12614	11186.20879	12225.33213	13110.93865
1200	1500	8617.91211	10341.53701	8886.36212	10062.01135	9677.30189	10663.31428	9699.59099	11292.40805	10311.60046	10330.46252	9354.61548	9291.65078	8122.78131	10129.1189	8803.42787	10113.80367	9111.82959	10532.82618	9257.8142	12712.47288	11409.9976	12150.77542	12622.75671	12274.65711	11600.29759	10358.3155	10298.5346	11159.13856
1500	1800	7853.71549	8839.12342	7876.0252	8907.36159	8633.92149	9431.74077	8622.72917	9743.05622	8892.10702	9287.79742	8426.17721	8677.61384	7109.65868	8852.60729	7646.7576	8974.31205	7965.42765	9284.33072	8107.61804	11720.86537	10313.2836	10467.96309	11356.20349	10946.64938	10052.40387	8402.51553	9081.38295	9197.78465
1800	2100	5886.77527	8701.62013	8214.36277	7733.41834	8264.71175	7633.23699	7978.03	9247.90869	8429.50093	8020.56594	7315.96464	7435.17008	6593.83097	7740.8967	7046.72611	7829.33534	7336.35961	8040.79388	7338.10596	10316.71117	8773.33985	9235.17449	9802.10181	9860.65882	8596.76924	7687.53992	7710.76692	8392.92694
2100	2400	6500.82774	7713.29232	7063.61584	7819.02413	7503.88482	8290.39036	7694.24725	8741.15034	8309.05074	7604.07659	7688.11172	7603.92589	7168.64184	7496.52101	7361.4354	7699.48625	7455.23332	7623.9817	7439.1777	9292.87384	8154.20823	9353.2287	9445.46277	9253.87978	8074.44525	7113.7688	7996.99567	7533.46114
2400	2700	5449.55119	8491.41165	7918.6066	7043.66968	7369.13372	7050.54235	6973.62649	7646.28129	7495.51526	7384.0532	6635.18685	6650.32329	6126.50865	7069.90376	6423.7247	7399.02625	6725.59333	7188.74126	6626.29322	8381.27364	6851.43392	7865.9421	9358.66174	9383.9057	7929.72913	7163.38853	5801.09983	6960.32652
2700	3000	5738.95053	7936.12495	7226.32429	6710.68976	6701.05699	7292.80318	6288.14258	8102.63655	7165.74065	6992.40917	6785.09497	6507.8722	6362.10322	6609.49203	6390.40134	6947.75292	6546.35024	7060.73062	6498.98563	8322.14844	6884.58225	7089.87072	7956.59479	7969.4822	7011.86336	6631.17626	7129.28817	7065.87745
3000	3300	5348.42283	6463.95594	6449.72102	5787.29208	6216.95407	6315.96185	6445.23309	6763.79486	5931.87259	5735.34871	6035.00526	6115.67719	5768.34326	5558.24813	5610.50008	5755.96735	5696.81085	5722.95723	5786.96835	7116.93125	5604.88841	6971.95054	7293.81134	7166.43373	6070.39464	5407.36671	7018.41864	4874.77718
3300	3600	4603.79894	5612.54769	5793.95639	5958.60497	5763.59234	6243.24017	5991.13533	6199.02899	6782.67621	5567.44742	6026.13326	5780.87391	5375.63299	5600.17139	5762.94293	5647.6011	5863.9361	5562.55392	5908.54537	6652.69291	5016.40846	6384.61545	6972.81427	6598.81636	4931.41239	5046.66059	4970.85473	4821.53831
3600	3900	4678.96536	6023.56915	5231.18093	4941.45551	5247.68897	5266.15957	4990.40017	5712.2454	5634.95413	5212.83977	5690.24886	5128.25436	5357.3823	4991.82004	5274.48011	5174.28057	5285.07128	5019.38276	5293.19475	6631.65054	5104.18711	8442.7787	8959.8078	8858.34894	6682.08329	5130.16939	5054.01972	4154.81579
3900	4200	5222.15637	5457.18385	6130.88871	5567.49589	5638.19067	5714.5835	5808.80192	5196.2458	5922.73307	5108.46566	5838.89923	5588.81379	5278.89408	4787.76001	5464.55407	4899.68568	5610.56363	5147.4827	5612.14626	6202.37927	4997.41711	5584.50712	6482.30927	6482.53462	5160.4483	5015.02902	5556.49663	4483.5027
4200	4500	5053.0544	6070.92957	4404.56897	4980.16278	4510.27328	6239.84415	5209.41181	7124.10761	4806.33514	5296.91162	5236.61458	4625.39649	4663.34017	5215.01535	4365.42414	5317.5981	4429.74381	5801.9825	4708.86758	5823.94469	4369.53555	5191.18365	5597.59625	5899.60159	5686.27169	5737.00312	5023.93843	4442.74852
4500	4800	3854.65005	8194.21	5325.21861	4649.75753	4454.50803	4368.81415	4602.4715	5580.05365	5000.91815	5326.89998	5327.96453	5805.31024	5586.3416	5467.06032	5124.74387	5651.0427	4975.26219	5414.67997	4907.94052	5592.54862	5379.86307	6975.99799	7132.67157	7193.28488	6654.59976	6503.81919	4541.32778	5471.20638
4800	5100	3004.88372	3668.70916	5158.18385	4372.51267	5044.4593	3884.8295	4240.27988	4215.74638	4636.21601	4177.75931	5918.85105	5633.10961	5168.1397	4394.30977	4801.22355	4528.13036	4871.23479	4201.84149	4897.8981	5817.04459	3589.59259	4660.19225	4651.9039	4087.61111	3255.99358	2892.17521	4968.28745	3061.23192
5100	5400	2976.0017	4685.70165	5280.55492	3562.26999	4483.15316	3532.39982	3389.10397	5031.21333	4155.02059	3961.25825	4451.36047	3754.38152	3921.50616	3521.94823	3420.07194	3608.47242	3744.22549	4018.38567	3727.43214	5129.70289	3871.04324	5668.60987	7774.63281	7739.4347	5510.11421	5392.24237	5633.25583	3495.44082
