frame_start	frame_end	parasubiculum	HATA	fimbria	hippocampal_fissure	HP_tail	presubiculum-head	presubiculum-body	subiculum-head	subiculum-body	CA1-head	CA1-body	CA3-head	CA3-body	CA4-head	CA4-body	GC-ML-DG-head	GC-ML-DG-body	molecular_layer_HP-head	molecular_layer_HP-body	Lateral-nucleus	Basal-nucleus	Central-nucleus	Medial-nucleus	Cortical-nucleus	Accessory-Basal-nucleus	Corticoamygdaloid-transitio	Anterior-amygdaloid-area-AAA	Paralaminar-nucleus
0	30	492.39993	705.76567	491.51309	592.10613	375.51483	556.05128	767.72331	533.54146	412.39025	598.32213	317.60901	876.81872	440.34156	768.68944	446.25745	769.01894	462.21508	564.29671	473.9444	334.68385	444.48114	308.45654	418.17646	287.56385	400.36581	598.84825	560.01801	513.49109
30	60	7373.4842	8180.09562	8580.95355	7414.71314	8022.52648	7235.02994	9107.86672	7516.30914	7279.11997	7395.22112	5461.79762	8723.14356	7240.57004	7482.32097	7680.81593	7409.06232	7573.88978	7332.55409	7335.36613	6233.9766	7191.84169	7922.03866	8772.27783	8519.79874	7563.93166	7679.55097	6253.1343	8295.96861
60	90	16708.21497	18770.21652	18405.13496	16721.81159	17023.37983	16725.40344	19784.86281	17392.0094	16691.49299	16384.31374	12995.3519	19921.29338	16343.69133	16927.41753	17305.5106	16999.97124	17156.79047	16688.88353	16417.76663	15742.80703	17535.79427	16368.64639	16505.32469	16814.39005	17736.24442	17485.2198	15893.04568	17451.82998
90	120	26650.97461	29105.0309	29031.25616	27684.15307	27079.14447	26575.8949	30904.58913	28244.91352	28537.5218	26632.29195	21876.70705	33556.78227	26053.87665	30338.64321	28297.58712	29265.08364	28349.75108	27873.1825	27148.46957	23873.28092	26823.34851	28920.48348	29013.95012	25940.34948	27357.12331	26876.38059	25159.49007	28489.32526
120	150	34657.34502	38479.69015	36609.29462	35281.69555	33463.05991	35218.13219	38280.38677	38165.84135	35496.30246	35536.02597	30905.77928	39897.99727	33423.14457	36659.23156	34698.92006	36356.36172	35114.01565	36791.94373	34140.61834	33556.65946	33342.17984	36956.27441	37035.4924	37458.34664	36039.81695	33866.08612	32944.94867	35864.04586
150	180	32121.62023	37285.57541	36187.17702	37146.29583	34679.6864	34201.46832	40763.45085	37355.77829	38300.51114	36879.49778	31959.59121	41375.19136	32781.82423	38627.43373	35675.57893	38482.85499	36063.52744	37307.85795	35663.5333	34586.93703	37044.64883	39580.11975	37575.32506	38084.58594	37748.8235	35287.77096	35189.78387	37327.25108
180	240	33446.85147	36484.18359	37597.97377	37621.78456	33078.82921	35193.93683	38189.26582	37716.12377	38869.6568	37000.45321	33347.2102	38936.22675	34378.43955	38150.49398	37245.32575	37557.23871	37240.13814	37967.37498	36200.62466	35360.36132	37930.95397	37568.30444	36351.7424	35990.16394	38699.75537	35794.03482	36791.08612	36798.71892
240	300	31769.10722	34935.5058	35821.2999	36168.15546	31942.43635	32422.93374	38648.49518	33814.9116	38019.71916	36705.02518	31620.65012	38132.03586	32623.11305	36926.90408	35373.10202	36409.32934	35731.84882	36341.23818	34889.86383	35672.27417	36909.11314	34250.79191	34908.89342	34650.04254	36531.03813	35134.86451	36012.94432	36438.45989
300	360	29238.44826	32612.87074	32889.06264	34328.64046	30667.80204	30267.62936	35030.36933	32389.05149	35043.26171	34727.74998	32014.07198	36215.9721	30022.94124	35931.7458	32606.31823	35502.98799	33126.85846	34856.47879	32665.61085	34301.86272	34917.16212	34926.75536	34182.88197	33537.29004	36419.09183	33664.59035	34049.22863	32934.23865
360	480	25440.71837	30679.42141	30273.88697	31055.39886	28155.0401	26987.50756	32234.18709	28339.88009	32782.89811	31620.22585	29217.9068	32357.19363	27569.72534	31631.17245	30073.23838	31450.48833	30611.55934	31195.80737	30089.66176	30503.53517	33093.53613	33139.53744	31660.00665	32069.43338	35188.78145	32935.16434	31543.44458	30836.93144
480	600	20528.38902	26072.4361	27277.93121	28236.38783	25477.23292	22673.26969	27681.28581	23584.04213	30504.69694	28872.90569	27959.05137	29012.35609	25120.33246	29745.63263	27922.20483	29358.75876	28335.55932	28292.92509	27845.72127	28698.53259	30264.19841	27934.04615	28691.63054	27860.77467	30839.70714	29105.64343	28076.97048	27395.38359
600	900	16435.16562	22162.67875	23649.99461	22482.49737	22076.55718	17047.10046	23444.80149	17918.11134	24935.30831	23418.50709	23728.46706	23676.27009	22344.87718	24209.81645	24173.45462	23547.43251	24333.85842	22501.38127	23822.8488	25016.87023	25261.55513	24130.71057	24927.80147	24519.79178	26218.40144	24997.08113	26745.2664	21974.36454
900	1200	12938.98624	18273.95126	20188.7174	18737.67999	18913.59804	13330.15441	19681.3333	13520.81639	20798.04068	19428.76203	21170.84085	21165.06317	19882.10695	20731.50465	21176.88643	20018.12017	21198.04848	18650.39103	20891.51581	21208.86268	21261.23138	21310.74169	22170.49594	20580.20266	21384.68091	20207.85209	22629.06707	18007.78221
1200	1500	10992.13234	16388.86776	17598.8513	16388.74885	16846.91703	11760.96523	16855.9317	11532.95352	17483.84715	16568.61829	18595.98656	19167.4504	17736.90523	18601.66488	18134.69561	17923.14133	18095.66381	16185.06294	18075.11178	18416.20531	17547.39534	18649.50656	18980.98617	18415.4955	18822.89256	17483.36789	20155.58597	14228.33878
1500	1800	9780.28611	14857.34541	15943.52016	14121.097	14915.50216	9882.68277	14807.74106	9702.09844	15729.65864	14376.38581	16667.85338	16514.49533	16137.40137	15810.70765	16482.29958	15283.37994	16402.19807	13753.89132	16285.70668	16726.05734	16164.83538	16059.29121	16858.93127	15732.67512	15657.98683	14847.45687	19802.29761	12948.25724
1800	2100	9506.12864	12947.68791	14417.10417	13043.24019	13783.73129	9106.32467	13124.987	8562.58362	14556.42598	13015.33657	15746.15019	15383.35137	14977.12846	14784.72044	15146.02715	14022.21362	15057.71278	12586.6982	15095.09939	14403.8399	13677.38776	14080.70735	13798.62405	12767.2859	13634.44198	13189.86909	17099.53582	11804.81854
2100	2400	8814.56144	11358.05056	12681.39976	10959.66597	12230.19024	7787.43537	11870.2554	7280.10404	12024.27667	11405.844	13730.56772	12495.4287	13394.03909	12082.26504	12988.22409	11638.33088	12929.50854	10595.17373	13098.83787	12617.16635	12197.33595	12619.12704	13036.7983	11674.12086	12539.7722	12182.32339	14382.56386	10265.50053
2400	2700	8654.00978	9768.64953	11657.37576	10359.61627	11846.83161	7805.95535	10646.4989	7089.91395	10963.50877	10497.7972	12524.10744	11158.17124	12350.47303	11117.87607	12242.34686	10748.05116	12123.18702	10002.85068	12135.66729	11030.25539	10795.97013	12105.94385	11813.07607	11326.59071	10992.17067	10519.30935	12334.98439	9941.88185
2700	3000	8056.53119	9860.20591	11127.35673	10031.02386	10551.65049	7713.11202	9692.84845	6209.51631	10282.40015	9428.24684	11388.98669	11418.33819	11888.87931	11284.32674	11334.77641	10706.82866	11134.5398	9325.60576	11136.51073	9616.35948	9136.72182	10310.69694	11103.23585	10001.9164	9498.43729	9426.40714	12136.14713	8271.24757
3000	3300	6415.74155	8121.26055	9768.24048	8299.76214	9409.22642	5959.36889	8922.09929	5770.17404	9405.21485	8213.46455	10011.48597	9889.16939	10515.98279	9347.29006	10342.07723	8853.69614	10142.80895	8005.06359	10171.2641	9774.70501	8380.57287	8575.9424	7967.40295	7093.32466	7750.37718	7565.37152	9876.55032	7511.02427
3300	3600	6185.43231	8204.41114	8401.66084	7528.33973	8965.53519	5737.07056	7690.86696	5337.77196	7922.72711	7826.55466	9134.40792	8325.82344	9212.61919	7807.28688	8654.07581	7621.22237	8610.95943	7372.94527	8778.78561	7857.12966	8242.66685	8971.85766	9863.6504	8518.3265	8192.0326	8125.28755	8236.81611	7591.44078
3600	3900	5034.86132	5973.88773	7412.30972	6668.99935	8016.03212	4693.34542	7403.49941	4351.86234	6949.25778	6855.94602	8949.43348	8071.89171	8416.13421	7607.06144	7724.15729	7132.09879	7766.10691	6533.10859	8169.73294	7814.76715	6626.4217	7691.20984	8813.73401	7847.61534	6612.73313	6923.18826	8726.27034	5283.45109
3900	4200	5201.29087	6403.38237	8057.39591	5907.59849	7284.1946	4459.87975	5780.74457	4059.17374	6202.84687	6300.215	7390.44255	7258.77483	8519.36201	6544.11056	7567.22154	6365.04515	7326.57438	5814.94138	7232.14495	7265.5721	6586.75664	6817.7378	6529.19936	6123.8915	6423.21592	6348.00469	7774.1591	5823.78537
4200	4500	5256.43469	6583.2843	6193.89063	5772.53089	7470.68107	4727.86343	5296.23743	4306.7074	5795.08495	6266.99199	7268.76619	6449.16846	7176.56735	6183.49761	6778.75575	6063.5672	6593.42978	5862.58971	6696.98641	7384.95991	6551.96611	6991.60036	7808.49336	7752.80312	7043.29192	7009.96638	7041.36138	5895.2892
4500	4800	5505.88874	5414.724	6630.66446	6639.69307	7262.4805	5613.69639	6133.27116	5254.02012	6197.48593	5927.5483	6836.78314	6186.27391	7901.963	7209.88583	7011.6584	6900.92931	6749.35132	6315.23498	7033.6065	6727.49882	5414.11884	5677.45397	5379.68568	4726.05749	4719.27942	5216.39195	8911.80892	5390.42331
4800	5100	4669.01045	5856.60182	5310.76816	5351.91863	6425.50619	4652.30168	5284.02544	5145.48628	5160.27657	5642.12444	6950.38391	6221.00619	6341.03204	5802.40013	5628.55035	5779.88314	5581.67414	5620.95913	5994.37529	6343.00268	5143.38709	4935.02865	5684.1422	4662.44929	5221.93125	5550.75939	5546.50552	4917.61653
5100	5400	4520.76219	4897.83695	5189.60312	4972.10191	5922.33879	4036.83597	4349.69925	4426.6574	5385.17768	5147.94696	6965.66081	3798.42575	6348.50312	4562.09206	5655.20628	4769.95372	5665.84977	4865.38719	5896.33843	5760.93498	4839.18463	5424.22227	6873.58863	6371.92063	4363.39353	4791.72524	5902.66687	5723.23768
5400	5700	4522.83022	4407.46506	5957.05276	6162.49487	5657.35744	5220.0026	5096.75261	4634.52924	5430.56427	5619.90112	6623.17034	5386.55864	6846.78688	6844.01789	6239.54233	6385.47291	6169.94951	5951.50356	6374.73853	5063.42404	4726.3492	5722.36523	5088.63602	4575.02988	4375.88974	4524.81368	4479.50691	4527.55996
5700	6000	3205.10268	4497.48409	5956.19248	4527.63952	5643.76506	2960.07766	5027.19991	3599.92169	5254.34984	4409.75668	6083.40218	4993.15272	6422.80773	4858.15771	5616.6096	4802.40908	5575.12686	4313.15678	5647.44405	4376.67852	3033.15256	4829.38783	4625.53184	4228.74255	3915.08978	3778.90054	5334.21031	2652.98574
6000	6300	4814.73094	3865.26355	5310.71003	4845.68437	4893.24507	4021.10475	4123.74626	4809.92678	4322.26819	4895.60869	5339.8697	4645.03211	5810.86747	4119.96908	4984.95484	4357.60942	4851.88992	4857.93183	4947.1256	5512.75323	5830.7459	4738.57063	5053.76818	3431.69849	4139.31859	3788.65809	5526.92928	6702.22197
6300	6600	5220.07089	4323.72777	4275.99727	4074.15559	4244.43901	4399.43733	4162.81014	3434.84684	4109.69977	3944.61325	4842.09046	5175.36289	5154.26636	4521.79711	4294.88417	4364.04861	4418.33824	4018.73138	4632.10634	5693.95613	4916.35561	4461.74726	4976.29089	3441.19043	3489.5619	3419.04962	3727.37853	4730.19181
6600	6900	4405.33156	5106.63637	4309.58062	4254.36414	4723.30956	4463.78515	3584.17346	4035.52993	3786.13243	4838.28855	4598.05362	4856.81196	4974.19951	4504.70818	4440.40737	4683.10632	4328.90673	4666.63318	4312.65305	4799.80001	4219.67167	4136.25253	4123.57592	2766.76783	3968.62004	3554.21977	4561.93751	3598.37048
6900	7200	3764.10286	5502.00376	4676.90869	3553.16496	4195.56416	3317.0613	3365.92954	2839.40436	3212.63509	4036.66709	5611.46744	3669.6001	5651.58055	3500.77711	4270.39609	3671.26141	4374.88058	3565.80604	4582.05201	4427.79984	4107.40998	4271.59254	5003.68327	4566.95786	4375.00053	4319.30124	5257.45036	4066.87477
