frame_start	frame_end	Left-AV	Left-CeM	Left-CL	Left-CM	Left-LD	Left-LGN	Left-LP	Left-L-Sg	Left-MDl	Left-MDm	Left-MGN	Left-MV(Re)	Left-Pf	Left-PuA	Left-PuI	Left-PuL	Left-PuM	Left-VA	Left-VAmc	Left-VLa	Left-VLp	Left-VM	Left-VPL	Right-AV	Right-CeM	Right-CL	Right-CM	Right-LD	Right-LGN	Right-LP	Right-L-Sg	Right-MDl	Right-MDm	Right-MGN	Right-MV(Re)	Right-Pc	Right-Pf	Right-PuA	Right-PuI	Right-PuL	Right-PuM	Right-VA	Right-VAmc	Right-VLa	Right-VLp	Right-VPL
0	30	471.74994	179.63483	308.04024	488.04072	275.7865	204.6561	175.19285	343.96593	312.25593	261.56135	159.6276	177.40687	347.65919	158.5892	262.70942	127.39757	201.99647	320.98806	175.89927	292.94127	333.88316	312.01872	192.28055	546.88655	252.60261	906.55619	727.16165	392.11056	322.53656	216.58372	351.31102	508.25921	395.40511	376.69252	309.36283	159.84379	206.32062	267.02408	328.73362	120.97105	215.80001	258.26367	280.49579	368.60988	397.58269	271.75542
30	60	8354.59119	7067.46126	6838.51709	6932.79056	4832.05289	6088.29415	4516.19112	5490.16471	8186.84815	8586.76767	6870.09554	6842.80786	4697.08534	7645.22619	5777.16343	6572.7052	6663.14305	6255.23727	6064.63672	6666.67283	6499.61557	4465.58197	5179.05002	8480.30381	8909.98797	9019.76843	7569.29518	5596.46079	4965.54863	5397.42305	6547.9969	9489.60674	8817.61914	7621.475	6168.70241	10097.375	6564.743	7414.96244	7344.62408	6642.08238	6630.9042	7328.88837	7756.95872	7183.39663	6827.69882	5961.25542
60	90	15727.0613	14609.66174	16824.51348	18122.49303	11392.52948	14535.93918	13529.90272	13621.55566	21720.34374	19624.45025	17379.6686	11730.21184	15643.90561	18691.61607	15245.33543	13534.43426	14238.70367	12929.31419	13306.76465	16049.47939	16326.01879	11635.42261	15470.63611	15994.68564	18429.48583	18231.83464	18561.53826	12704.04571	13701.00059	13945.33659	11344.95496	21430.89987	20651.13346	16416.24653	14375.16241	23154.29297	15820.10941	16828.88471	15412.70734	13539.40595	14416.63078	14607.13296	17265.84624	16367.69532	16994.0563	14022.25888
90	120	27203.79504	25061.61517	29893.34824	31452.92014	22202.98993	22247.97597	23547.55801	22107.02713	35045.25891	31566.29492	28070.45978	18752.37165	26137.99598	30954.5114	26029.34974	22047.92251	24806.46385	21499.87994	23553.22141	24024.59301	28329.04395	18811.15186	24398.17111	26662.31264	31642.61759	26649.92806	27494.44571	18149.87958	23698.70016	19387.8898	22384.44956	35276.94317	32270.80281	26207.79629	26738.20297	38012.2168	23478.14781	27551.09846	25591.17827	24304.97223	21965.50221	23692.80608	29895.28409	26187.42305	26945.26417	24382.42656
120	150	35782.37548	37283.05326	32215.66133	39335.012	24373.72258	27963.98928	27026.25497	31073.19661	41302.4015	37660.75544	35709.27694	28044.90053	31419.34365	40745.66757	32366.4031	35080.46895	32631.83366	33467.54078	32942.67649	33553.22318	32761.74293	24420.49023	30952.49126	31885.40101	37393.35639	31637.42611	45727.66368	22785.31738	30400.0763	27268.37467	27607.69347	44248.69193	39258.43145	35484.77241	28428.33519	45133.58594	35832.69056	40413.0877	32918.24078	31733.65443	29815.09148	30351.39644	35532.73668	33931.0486	36483.12516	35108.20167
150	180	35420.8229	40693.06718	36256.19395	40557.46849	26413.62575	28544.0177	32242.10738	31461.51128	46890.91709	39121.45337	36814.49428	31256.98354	34986.80395	43240.61291	32430.71809	29713.19158	30794.14772	32928.85694	36871.53001	34370.87205	37041.85991	22377.48535	32963.22495	37555.02293	37448.13991	33699.08919	40640.95926	21351.51562	33684.99797	27859.60064	30387.2793	43922.36154	39402.6787	38469.17522	30092.03696	42616.16016	32185.55461	39675.63495	38985.42639	33720.04667	32065.42342	33311.01213	34406.74716	33960.11413	36789.57322	36092.86155
180	240	32942.71811	35521.26575	33011.38496	42272.46932	25755.96837	30861.12338	28377.20067	28904.31684	44186.60789	38229.37672	36716.40602	29518.34459	33294.83348	45259.3834	35484.74639	29585.11993	31591.12853	30715.53993	32546.34996	34374.56734	36823.39413	25512.21729	33936.82204	33977.28818	40228.77764	35496.36003	41429.88572	23870.17105	34612.28262	28535.98766	27574.61765	47133.70006	40680.43023	37355.73569	32708.74234	49750.8418	33640.26054	42878.26519	36806.4105	31110.92222	31847.36977	33151.82404	39005.94318	34856.72591	36792.37889	35199.10748
240	300	28124.14222	32821.46179	30000.58145	39325.58008	24115.43389	27885.21969	28891.57241	28150.49045	42924.12852	36828.13328	36513.84766	29985.60184	32570.33547	40683.18361	32539.64506	32085.62412	30360.98372	27543.86108	30960.60156	31502.75862	35875.98475	21286.39795	32655.19326	33072.65307	36899.78749	34351.84619	39328.61086	20854.91196	30994.49369	27566.23531	29434.34513	44463.55218	38744.10655	36122.61032	30986.38522	45771.70508	31097.41351	42211.30648	35228.98881	33443.01146	31309.8258	34429.65943	35596.73065	37378.52383	37977.98205	35979.43223
300	360	28790.59522	31855.22587	33363.39141	39448.40125	25037.66264	26944.02946	28475.05438	28643.17513	41878.00788	35821.3614	34911.75677	27482.27107	32982.98789	38297.06288	31692.0082	30814.1746	29157.31453	27849.93325	30039.4233	31718.7854	35053.70235	26471.44189	31652.74134	29213.64449	32551.49849	29698.37419	36728.95854	21897.09578	29362.57615	27496.09428	28155.92406	40027.36817	34901.7386	34976.99617	27431.91046	40324.21875	30431.49889	37432.45241	34605.81489	30895.88549	29210.93934	30907.1489	32115.4446	34570.64377	34405.74156	32186.36528
360	480	27514.21684	32885.27277	28672.81211	36002.34361	21048.96702	25814.91972	26025.60389	27008.98893	37712.68707	32429.29593	31903.4791	27339.22824	30899.27305	36403.91346	30455.1863	27619.74055	27243.25912	28369.46973	30649.69691	30291.0262	32865.98793	22397.66406	30083.02165	27886.18241	32972.07699	28526.63053	36721.67315	19297.8297	27363.36877	23895.28135	24972.03274	39960.32135	33833.7921	30023.38827	27284.27299	41954.76758	30155.43031	34824.28587	30751.11187	26897.9325	27758.34169	28881.30198	33194.59339	32655.07256	33663.32065	30374.74356
480	600	24245.21835	27185.05752	24793.53047	31369.07363	20507.18262	23405.83542	23612.24819	24116.69922	31902.87948	27214.46174	29690.96658	23418.03739	26729.33668	30570.69942	28293.68843	24453.71711	23882.52854	24767.67435	25863.38281	27310.77332	28724.28838	19448.04004	27346.74123	24419.73861	28588.26359	24962.63216	34465.92383	17788.64329	25240.08974	21942.18446	24042.09835	34152.54938	28293.48385	29655.44728	25916.85276	33401.51172	25781.09806	31057.7496	28451.95076	25464.3429	24023.39263	25868.69962	28890.50941	29112.04931	30224.76434	27861.18336
600	900	20098.46807	22844.87583	20270.86328	25917.00823	16214.48193	20112.59222	19226.01259	19457.72331	26175.7108	22302.557	21914.13552	19217.83092	22767.6052	25582.71322	21621.9908	20837.81905	20285.78979	21653.50423	21965.5332	23359.35953	24306.60345	18544.01074	22637.69953	20221.2623	24220.67828	20664.78385	25328.21845	16385.64603	21664.17654	19781.30732	18763.21875	26596.24065	22940.40058	22691.14078	21070.99639	28201.41895	21298.56174	25875.01827	22504.47975	21486.2205	19781.51828	23508.04588	25256.42862	24298.80343	24660.44879	24461.20589
900	1200	15927.59362	17250.49719	15308.54541	19414.77263	13142.95061	15363.24278	14766.37776	16027.29449	18580.57253	16095.86744	17632.07921	14825.98542	18204.0808	18786.97646	18024.57639	16686.99334	15112.20379	18156.42148	16955.159	18933.42703	19204.4631	15344.12305	17932.71607	15963.99646	18821.17466	16016.55184	20264.61496	12967.50552	16188.94666	15062.03768	14866.42446	19749.77376	17390.33601	17171.81644	16760.79289	20139.12012	17510.75912	18792.23068	17355.4699	17064.58034	14976.17396	18379.19121	19750.91797	19829.46698	19708.74338	19036.8973
1200	1500	13076.91058	14758.2919	11734.06367	16544.97009	10657.81802	12819.03735	12190.55806	12701.08724	15009.05457	12929.38554	15101.43547	13488.03795	15195.79807	15123.24401	13469.86552	14610.75846	12362.17276	15018.51849	15335.3845	15496.41293	15466.0678	13387.48315	15197.31218	13315.16826	13707.99702	13045.41479	16234.49074	11405.48595	14719.47583	13009.67065	13636.08019	15275.22332	12990.51897	15409.4752	12998.91151	15102.04834	14252.16649	14791.76398	14466.86138	14887.88118	11949.79341	16228.64418	15338.71689	16600.04456	16027.57546	15993.54272
1500	1800	10416.88243	12755.45121	10936.38447	13038.97269	10022.27907	12185.00881	10908.65906	11179.95215	13134.16031	11569.32333	12862.83689	11219.58824	12112.64187	11954.21862	11841.00642	12527.14791	10998.33111	13124.00951	13639.03356	14381.70527	13983.88784	12146.02246	12944.69467	11873.86493	12288.06835	11811.14258	13302.43415	10732.94527	12933.50311	11847.75518	11446.05222	13903.38108	11697.86912	13192.3826	11970.51743	13051.85107	11932.70506	11994.43755	11926.52457	12712.83297	10300.81783	13730.47384	13460.20517	15711.29987	15312.27905	14441.68084
1800	2100	10881.09521	10927.34673	10145.76162	12998.99093	8924.29058	11727.60722	9910.40848	11362.51953	11726.11808	9917.02527	11655.43746	10006.20222	11338.93414	11785.11313	12165.89982	11107.42703	9757.41431	13592.5719	11565.85529	13183.35299	12492.11682	10509.24707	12352.31414	10224.62554	11655.00039	9769.19458	11785.94141	9452.60714	12575.24265	10919.72751	11146.79619	11957.07797	10046.79057	12883.97909	11402.18224	12947.39697	10831.85527	10538.14033	11482.97084	11474.63037	9487.00396	13035.94865	13213.1424	13612.51192	13067.84514	12748.57936
2100	2400	10029.72949	9505.58099	9133.65566	10701.05516	8657.84362	11403.20544	9112.89836	11039.62956	10091.54141	8789.06386	11058.54182	9380.03578	10142.08592	9995.57495	10520.6314	11463.2304	9624.78659	11170.58896	10949.09961	11854.82927	11351.05148	11914.75415	11339.58827	10629.89329	9642.48307	9025.57019	11542.62053	8493.81443	13536.09563	8771.66003	10646.8673	10260.80285	8933.61889	12987.75818	8393.01025	11049.75049	9805.81089	9621.27014	12274.126	10217.40985	8570.5445	11965.37412	11086.99609	12908.44191	11873.73153	12499.23002
2400	2700	9643.39315	9912.70098	8865.79268	10102.75191	8650.56188	10324.58047	8613.80125	9014.03038	8915.15541	8205.80957	10603.82362	9192.36342	9620.85707	9666.6438	10607.56975	9994.11468	8359.38482	11077.1404	10651.30362	11799.42505	10447.58178	10856.11719	10706.33498	9387.05452	9983.8811	8443.27665	9456.11062	9489.37055	11448.63577	9509.73677	8727.69327	9302.655	8642.64558	11207.87794	9231.54289	10518.55127	8760.27425	8989.71628	9492.28088	9033.30279	7306.48416	11653.96708	10521.09535	11265.11201	10539.39372	10499.65327
2700	3000	7842.14251	8360.07903	7792.66709	9756.63043	8327.8762	9367.73411	7001.87193	8166.38048	8905.86958	7789.82292	8583.17675	7166.7259	9789.13352	7389.21478	8581.06134	8212.5039	7114.90876	9529.26275	8074.31139	10338.65535	10429.69322	12210.6853	9707.77057	8168.13922	9133.26902	7567.47209	9776.47128	6885.31975	10886.18722	7256.05904	7969.21088	8655.38292	7809.93418	9104.86463	8576.77757	10017.0083	6697.95712	8232.30216	9392.81141	8619.03564	7307.39074	9724.52661	9708.42685	10485.46813	10463.6796	11201.71489
3000	3300	7666.49151	7122.54687	7324.12432	8084.17636	6565.43851	10009.82161	7840.61297	7286.86057	7345.3313	7001.85152	8369.35736	6219.41476	7996.57885	7741.35836	7913.23287	7986.55263	6530.68169	8806.73604	7083.97035	9416.92826	8523.86051	8952.2522	9185.54324	7161.89509	7788.0815	7662.2817	8927.85607	8584.36321	10874.23637	9003.35011	7734.56063	8069.4016	7294.12688	9033.13998	7281.94978	8464.78125	8186.20603	7534.49427	7989.01184	8657.35743	6586.90697	8842.86249	8405.47159	9414.67693	9458.09787	9951.31213
3300	3600	7127.21818	7402.73579	6124.12935	7510.73055	5920.61212	7843.94916	6542.70465	7178.14914	6554.59989	5980.46737	8753.43099	6299.21132	6985.98383	6977.83733	8327.50561	8144.5344	6749.21225	8353.09482	7977.2551	8105.05231	7864.08664	11260.60913	9819.25708	8506.7965	8569.00197	5832.59387	8812.63672	5495.90969	9073.70472	6122.83894	8104.86696	6854.51248	6455.95637	8160.36175	8552.44002	7475.948	9002.28555	7765.06562	7861.96613	8280.68063	6811.34687	9261.98786	9791.53578	8897.86423	7792.24008	8803.36695
3600	3900	5579.3863	5537.56119	6296.1457	7277.43928	6456.89053	8087.29337	6696.39471	6868.23947	6576.05544	6416.85096	7208.67946	5223.7666	7643.41688	5736.45278	7981.46986	7135.13031	6082.60487	7037.12652	4803.01305	7429.08931	7463.48052	8831.36023	7831.61218	6726.42246	7239.66954	8157.22758	7756.3427	8839.08214	8424.08343	7409.81285	7304.42762	7832.67554	7275.42009	7707.3224	7062.55589	7988.24829	7133.50403	6691.35639	7037.12346	7709.95725	5529.26711	7665.48304	7433.91291	8168.54317	8239.01955	8422.03498
3900	4200	5607.81475	5356.00613	6080.63604	8033.54665	5959.12074	7813.50171	7123.51226	6862.30762	5496.15199	4928.6117	6227.95992	4426.27586	8568.70227	6097.88242	6054.40834	7686.76697	5828.41376	6584.663	5800.75679	6802.67399	7139.65835	8302.89636	7210.72718	6636.07506	5656.80491	5905.27688	6092.20248	6768.05046	6563.19851	6007.29511	5961.33258	6938.90419	5372.34607	6617.72535	4487.0157	6766.05688	5327.14786	5478.36785	6043.39854	5817.99499	5101.70501	7297.43024	5812.12877	8122.17098	7661.78643	7767.29964
4200	4500	7041.23409	5675.83104	6190.93464	6109.95586	6637.0373	6517.47105	5226.50467	4998.5596	5928.5468	5148.85269	6919.64428	4715.31581	6214.71749	4563.38787	4639.63161	5914.1577	4358.82379	7247.80707	5927.92884	6624.04924	6344.78095	7893.81104	6758.53401	5561.52425	7275.86779	6834.62366	5246.93649	7233.48665	7627.28149	6627.15522	6106.89542	5784.71382	5113.11581	5759.87462	6414.10235	7418.26196	4409.3173	4720.12966	6128.2825	6374.79266	4732.07806	7271.58322	9014.67245	7926.32849	7223.35196	7022.96649
4500	4800	5385.30399	5509.99544	5571.49116	5271.11678	6132.91644	7464.23932	5243.53918	5432.15375	5471.31984	5163.56745	5931.03315	6989.26311	5395.84574	5850.94079	5634.2523	5817.31995	5327.88628	6239.08663	5862.77912	6192.60256	5645.54185	6217.65503	6203.12738	7187.04623	6246.18423	3891.87785	5411.26708	4770.53919	7222.84928	4606.13346	4065.45781	4578.93198	5102.7408	6929.97646	6219.1339	5357.78687	4129.52104	4157.79285	5731.79306	5102.1714	4516.12826	6779.31591	6873.57537	6046.15368	5772.43614	5547.64429
4800	5100	6132.18912	5004.59796	6579.08193	6315.72315	7014.04036	5546.87943	6087.17904	5345.96528	5831.38787	4503.43308	6220.41224	5797.17787	5926.67538	5142.6652	4602.12319	5038.45405	4597.19242	6409.44369	5752.23651	6837.06581	6581.70574	7196.66882	5533.83059	6919.76772	5337.06818	5805.45717	5024.40801	5094.48618	8904.35992	4826.95565	4660.15201	4897.49925	4262.30359	6058.79954	3442.07476	5297.21875	4871.06101	5237.34477	5428.40465	5830.35037	4165.23205	6880.03006	5104.86503	7050.02206	6399.51685	6897.15261
5100	5400	4433.14686	4617.08772	3922.84875	5190.53592	4191.83996	6495.62573	5104.11285	5078.77875	4314.28758	4271.4442	6937.15062	4257.36672	6146.30624	4097.23742	5025.64527	4987.399	4626.70061	5521.14658	5191.49925	5862.94321	4967.80137	7299.17444	5628.4043	4472.20424	5650.85774	4835.40678	5815.78746	5498.03236	5349.3052	6599.34522	4279.60544	7983.06917	5934.87049	5162.7119	4103.19708	8719.79834	5226.82149	5139.34309	4375.80583	4288.58605	4098.35935	5438.72915	5845.24228	6866.75168	7026.93271	6360.4854
