frame_start	frame_end	Left-Cerebral-White-Matter	Left-Cerebellum-White-Matter	Left-Cerebellum-Cortex	Left-Thalamus	Left-Caudate	Left-Putamen	Left-Pallidum	Brain-Stem	Left-Hippocampus	Left-Amygdala	CSF	Left-Accumbens-area	Left-VentralDC	Left-choroid-plexus	Right-Cerebral-White-Matter	Right-Cerebellum-White-Matter	Right-Cerebellum-Cortex	Right-Thalamus	Right-Caudate	Right-Putamen	Right-Pallidum	Right-Hippocampus	Right-Amygdala	Right-Accumbens-area	Right-VentralDC	Right-choroid-plexus	AirCavity	Skull	Vermis	Pons	CSF-ExtraCerebral	Head-ExtraCerebral	ctx-lh-bankssts	ctx-lh-caudalanteriorcingulate	ctx-lh-caudalmiddlefrontal	ctx-lh-cuneus	ctx-lh-entorhinal	ctx-lh-fusiform	ctx-lh-inferiorparietal	ctx-lh-inferiortemporal	ctx-lh-isthmuscingulate	ctx-lh-lateraloccipital	ctx-lh-lateralorbitofrontal	ctx-lh-lingual	ctx-lh-medialorbitofrontal	ctx-lh-middletemporal	ctx-lh-parahippocampal	ctx-lh-paracentral	ctx-lh-parsopercularis	ctx-lh-parsorbitalis	ctx-lh-parstriangularis	ctx-lh-pericalcarine	ctx-lh-postcentral	ctx-lh-posteriorcingulate	ctx-lh-precentral	ctx-lh-precuneus	ctx-lh-rostralanteriorcingulate	ctx-lh-rostralmiddlefrontal	ctx-lh-superiorfrontal	ctx-lh-superiorparietal	ctx-lh-superiortemporal	ctx-lh-supramarginal	ctx-lh-frontalpole	ctx-lh-temporalpole	ctx-lh-transversetemporal	ctx-lh-insula	ctx-rh-bankssts	ctx-rh-caudalanteriorcingulate	ctx-rh-caudalmiddlefrontal	ctx-rh-cuneus	ctx-rh-entorhinal	ctx-rh-fusiform	ctx-rh-inferiorparietal	ctx-rh-inferiortemporal	ctx-rh-isthmuscingulate	ctx-rh-lateraloccipital	ctx-rh-lateralorbitofrontal	ctx-rh-lingual	ctx-rh-medialorbitofrontal	ctx-rh-middletemporal	ctx-rh-parahippocampal	ctx-rh-paracentral	ctx-rh-parsopercularis	ctx-rh-parsorbitalis	ctx-rh-parstriangularis	ctx-rh-pericalcarine	ctx-rh-postcentral	ctx-rh-posteriorcingulate	ctx-rh-precentral	ctx-rh-precuneus	ctx-rh-rostralanteriorcingulate	ctx-rh-rostralmiddlefrontal	ctx-rh-superiorfrontal	ctx-rh-superiorparietal	ctx-rh-superiortemporal	ctx-rh-supramarginal	ctx-rh-frontalpole	ctx-rh-temporalpole	ctx-rh-transversetemporal	ctx-rh-insula
0	30	251.43234252929688	172.9776611328125	246.1201171875	258.11163330078125	213.7038116455078	440.5124206542969	269.5426025390625	283.413330078125	326.8392639160156	226.29847717285156	208.68360900878906	240.04208374023438	245.2142333984375	308.0182189941406	248.01840209960938	222.4699249267578	255.76132202148438	332.02587890625	241.48837280273438	451.4386901855469	301.412353515625	342.2727355957031	368.3765563964844	303.7967529296875	261.8460388183594	140.5387420654297	75.57628631591797	70.755126953125	289.1407165527344	218.3629608154297	266.90911865234375	46.23490905761719	299.9967956542969	586.235107421875	332.7947082519531	270.8084716796875	181.76351928710938	147.25904846191406	289.45941162109375	210.17039489746094	253.6162109375	216.14749145507812	429.8493957519531	326.412109375	591.8883056640625	222.6602020263672	169.18148803710938	292.6312561035156	448.642333984375	513.4110107421875	293.7919921875	260.2720947265625	318.4448547363281	198.69989013671875	320.68902587890625	312.0145263671875	619.822509765625	341.7133483886719	374.7253112792969	290.3499450683594	455.270751953125	376.6463928222656	313.37017822265625	239.3880615234375	604.2411499023438	393.7570495605469	308.0707702636719	382.37091064453125	379.77667236328125	274.4121398925781	220.26060485839844	225.37606811523438	299.28875732421875	243.87249755859375	297.920654296875	184.93125915527344	384.3634948730469	313.7210388183594	424.3665771484375	271.5234375	274.9070129394531	305.5112609863281	398.66046142578125	367.2222595214844	370.8287658691406	242.81410217285156	260.4660949707031	254.11911010742188	294.83990478515625	240.74656677246094	459.5759582519531	347.96392822265625	366.8195495605469	296.4159240722656	429.11749267578125	338.8695983886719	289.27728271484375	307.77459716796875	540.2767333984375	473.27362060546875
30	60	4798.1767578125	5224.53662109375	6901.6298828125	6509.9853515625	5973.2568359375	8486.828125	5534.70947265625	5134.4755859375	5774.82666015625	5395.25048828125	4017.02978515625	6456.64453125	5454.22509765625	3826.60009765625	4896.21484375	5412.2158203125	6884.43017578125	7105.123046875	6460.3798828125	8064.17822265625	5303.1611328125	5442.67431640625	4316.8134765625	6383.50341796875	5336.357421875	4316.3876953125	1656.727294921875	2001.254150390625	7139.36962890625	5785.85400390625	5112.6513671875	1366.6104736328125	6578.89013671875	8800.2568359375	7890.318359375	7962.4462890625	4803.681640625	5729.55712890625	5941.3828125	5773.29736328125	6944.1220703125	5724.1064453125	7444.2197265625	7925.01025390625	7065.22802734375	6115.779296875	5803.068359375	6643.052734375	8238.4091796875	8123.28662109375	7750.3154296875	6549.8955078125	6223.345703125	7976.71533203125	7050.8583984375	6972.154296875	7871.94287109375	7275.0859375	7387.53564453125	6408.64794921875	6989.0029296875	6735.50732421875	7866.19677734375	5380.16650390625	9033.8203125	6871.46337890625	7058.015625	7892.0986328125	7185.84619140625	7007.22607421875	4537.376953125	5513.65087890625	6219.19091796875	5611.22705078125	7918.97705078125	6358.9833984375	7548.5712890625	6890.70751953125	6922.751953125	6268.49072265625	5883.73779296875	6387.89794921875	7985.484375	7273.92578125	7482.3603515625	6781.1142578125	6224.65380859375	7956.82373046875	6256.4873046875	7306.74267578125	7803.841796875	7137.28173828125	7269.779296875	5954.8115234375	7047.96484375	6576.849609375	7725.1640625	5189.49169921875	9412.6796875	7204.00927734375
60	90	11774.8798828125	13169.9228515625	17063.373046875	15533.294921875	15787.552734375	18393.08984375	13869.3720703125	12725.9619140625	12419.455078125	12918.8056640625	9476.2216796875	16750.73828125	13036.8779296875	9291.328125	12001.9970703125	13551.525390625	16468.43359375	16196.388671875	15361.8115234375	18105.6015625	13196.9765625	12718.212890625	10169.958984375	16855.0	13372.0556640625	10759.802734375	3755.62353515625	4837.08349609375	17832.44140625	13674.3876953125	11565.0576171875	3408.466796875	15494.4111328125	19336.759765625	18640.095703125	18581.330078125	11885.474609375	14359.4716796875	14402.4287109375	14640.30859375	17283.580078125	14971.529296875	17618.8359375	18699.8046875	16573.490234375	15125.6982421875	13311.154296875	15875.806640625	17855.919921875	17897.9453125	18263.8515625	17627.296875	14665.90625	18270.169921875	16367.1630859375	18099.1328125	15814.716796875	17962.146484375	17552.85546875	15509.1259765625	15394.7548828125	15474.75390625	18041.416015625	12518.556640625	20446.603515625	16622.013671875	17199.873046875	17086.83984375	16816.3515625	16775.052734375	10678.6689453125	13798.0439453125	15927.29296875	14092.4443359375	16657.55078125	16438.513671875	17230.322265625	16639.740234375	16228.400390625	15221.1748046875	13274.0146484375	15706.818359375	18126.87890625	16896.466796875	17185.30078125	16035.5908203125	14722.30859375	18374.1875	15824.1484375	17796.71875	17196.630859375	17207.6796875	17064.44921875	15186.0947265625	15897.025390625	15345.09375	18171.724609375	12198.6728515625	20873.458984375	16535.4375
90	120	19138.673828125	22273.677734375	26891.78125	25563.88671875	25190.70703125	30378.052734375	20928.26953125	19939.361328125	19644.216796875	20422.244140625	15195.796875	24834.291015625	20091.447265625	15193.9609375	19481.697265625	21749.0234375	26878.443359375	25888.85546875	24990.0234375	28797.990234375	20410.55078125	20870.1015625	18994.52734375	26879.6484375	20905.125	15886.2919921875	5705.82275390625	7462.26025390625	27686.087890625	22537.775390625	18227.396484375	5330.591796875	26562.955078125	27749.12109375	30456.25390625	30964.9375	19823.81640625	23410.94140625	24278.66796875	24055.01953125	28868.736328125	24766.591796875	28214.787109375	30714.845703125	26165.837890625	24616.462890625	20845.51171875	24649.146484375	28500.376953125	28831.5859375	27943.291015625	29446.005859375	24944.578125	29803.455078125	27202.95703125	29799.44140625	25203.708984375	28816.7734375	27127.552734375	25345.38671875	24829.759765625	25530.046875	30863.5	20250.853515625	32262.623046875	26309.1796875	28546.658203125	29416.701171875	26630.3125	28132.876953125	18416.728515625	23146.7578125	25917.38671875	23580.248046875	27205.48046875	26553.8046875	27313.83203125	27864.720703125	26126.322265625	25254.640625	22323.515625	24087.015625	28024.931640625	28352.4609375	27442.953125	28369.275390625	23986.06640625	30146.392578125	25293.951171875	28610.41015625	27288.609375	28003.380859375	27673.037109375	24797.08984375	25599.470703125	25442.314453125	29003.859375	19439.48046875	31762.068359375	25150.634765625
120	150	25079.734375	29109.5078125	34919.29296875	32767.75390625	33175.58203125	38376.7421875	27961.716796875	24722.8203125	25037.78125	26686.59375	18819.955078125	35333.953125	26137.810546875	19400.390625	25291.775390625	28419.05078125	35029.79296875	34368.1640625	33750.94921875	39043.21875	27006.517578125	25848.759765625	25861.865234375	29716.97265625	27257.04296875	21999.7109375	6853.0498046875	9092.1318359375	36445.62109375	28829.29296875	22971.876953125	6585.51806640625	35586.6953125	35426.1875	39111.078125	41721.03515625	26080.623046875	31568.96875	32085.548828125	31670.447265625	35683.640625	33827.4921875	35583.16015625	39773.80078125	33891.421875	32928.4921875	28013.572265625	31767.34765625	35268.13671875	39245.6875	36995.81640625	38567.9921875	31886.677734375	35901.75390625	35312.359375	38796.20703125	31618.30859375	37615.5078125	35447.57421875	33469.34765625	31524.5	32410.607421875	38648.11328125	26915.2265625	40274.38671875	34047.47265625	35173.5234375	36344.7890625	35240.62890625	36131.046875	23613.087890625	30645.283203125	34692.6328125	30695.44140625	35519.5546875	36227.12890625	35025.75390625	36464.07421875	32403.484375	32968.26953125	28249.103515625	31046.7421875	37276.71484375	38404.2421875	36491.6328125	37157.98046875	30970.15234375	36205.046875	31497.294921875	36645.078125	31327.59765625	35578.53515625	35612.6015625	32902.28515625	32219.765625	32939.72265625	37776.5078125	25393.818359375	39592.31640625	32625.73828125
150	180	25865.880859375	28987.658203125	35882.1328125	33750.01171875	36534.61328125	40295.1796875	28345.443359375	24891.474609375	26043.462890625	27594.86328125	19342.630859375	34519.1796875	26720.189453125	19375.830078125	26150.048828125	29732.65234375	35529.390625	35430.5234375	34544.61328125	41664.078125	27606.814453125	26670.451171875	23648.83203125	31770.865234375	27971.6015625	19259.689453125	6768.02734375	9164.6396484375	37213.8515625	29252.984375	23121.6484375	6598.8876953125	36304.5390625	33874.515625	39997.26171875	42048.359375	25317.064453125	32982.87890625	32942.94140625	33641.75390625	36733.13671875	34792.90625	36340.1953125	38966.953125	33578.6953125	34417.703125	28985.490234375	32443.37890625	36710.9296875	37506.85546875	38024.42578125	39886.140625	33236.37890625	35483.73828125	35732.984375	40192.171875	31253.548828125	38861.69921875	36186.875	33266.1953125	32408.052734375	34799.2578125	39646.42578125	28331.92578125	39186.78515625	33558.625	37239.05859375	37154.3046875	36564.84765625	38011.32421875	24507.865234375	31949.876953125	35690.48046875	31579.986328125	36304.31640625	37786.5859375	36339.421875	37711.28515625	33731.87890625	33948.73828125	28440.05859375	31470.427734375	38178.45703125	36761.0859375	36146.48828125	40415.17578125	32496.4609375	38732.8125	33876.5625	38084.953125	32772.140625	37813.46875	36539.9296875	33589.61328125	32055.958984375	34420.5390625	37998.98828125	25989.158203125	40980.58203125	33058.03515625
180	240	25671.7421875	29309.73828125	35365.4609375	33676.03515625	34712.87890625	40365.96875	29567.21875	25035.486328125	25598.15625	26266.79296875	18572.8125	34604.1640625	26429.623046875	18646.607421875	25803.69140625	28564.53515625	34909.6171875	35452.1015625	34800.2890625	40443.1328125	28423.90234375	25339.919921875	26330.828125	34243.2265625	27709.5	18018.005859375	6491.65185546875	9191.4599609375	35580.99609375	28654.669921875	22546.46484375	6641.00146484375	34774.91015625	35116.7421875	39367.390625	40870.08203125	26287.373046875	32781.65234375	33252.640625	32321.83984375	35955.23828125	33828.89453125	35777.62890625	38533.203125	33694.94140625	33290.37109375	28189.103515625	33045.5	36362.3515625	36972.171875	36391.0078125	38829.58203125	32717.216796875	37285.82421875	34767.4609375	39294.203125	31699.884765625	37987.796875	35847.6328125	33780.1953125	31837.328125	33304.8203125	38921.0703125	27024.875	38164.06640625	32574.560546875	35935.26953125	36014.3515625	35128.58984375	36854.48046875	24552.228515625	32116.181640625	35561.92578125	32024.880859375	35749.390625	36712.33203125	34188.83984375	36463.35546875	33524.95703125	33989.44921875	29022.9921875	31522.23046875	35834.36328125	36387.94140625	35496.9921875	39125.23828125	31355.904296875	37499.63671875	32747.650390625	37173.39453125	30431.552734375	36808.5703125	35653.703125	32962.36328125	32392.958984375	33994.7421875	38123.234375	26197.021484375	39771.796875	32084.83984375
240	300	24687.3984375	28197.810546875	33797.8359375	32119.296875	32488.701171875	39084.18359375	29239.494140625	23759.30859375	25130.625	27173.98828125	17655.7578125	33202.9140625	25622.1875	15766.91796875	24685.021484375	27613.095703125	33010.08203125	35316.0546875	32691.37109375	39874.4609375	28861.8046875	24361.09375	24501.380859375	32003.44140625	26744.376953125	17163.9609375	6286.853515625	9021.88671875	33415.45703125	28111.4296875	21271.8671875	6647.05322265625	33377.3125	32387.91796875	37379.796875	36774.69140625	25523.251953125	31774.9296875	31780.111328125	31980.841796875	33879.82421875	31882.14453125	34144.58203125	36289.33984375	32140.36328125	32508.341796875	27865.203125	32031.953125	33196.1953125	34838.1640625	33708.765625	36803.58203125	30623.630859375	35011.22265625	32820.30078125	36695.48046875	29313.931640625	35574.30859375	33297.9453125	31851.345703125	30407.892578125	32086.693359375	35467.44921875	27654.736328125	36085.1484375	32297.73046875	34462.671875	33917.8984375	33841.5546875	34667.1953125	23898.9921875	30893.3046875	33342.3515625	30386.013671875	32705.482421875	34571.87109375	32358.099609375	34021.41796875	31463.228515625	32071.791015625	28811.26171875	29150.921875	34279.5546875	34333.640625	33216.87109375	36107.9140625	29615.39453125	35506.30078125	30535.87109375	35036.2421875	30632.611328125	34537.69921875	33269.47265625	31694.056640625	30910.48046875	31870.74609375	33867.671875	25596.15625	36350.5703125	31210.296875
300	360	23508.39453125	26950.484375	31635.208984375	31324.7578125	31058.310546875	37089.10546875	29094.130859375	23067.609375	23136.267578125	26845.998046875	16466.69140625	34403.96875	25505.25	14609.416015625	23459.8515625	26303.9765625	31076.71875	32420.6640625	30775.6953125	37274.19140625	28301.29296875	23470.474609375	24864.322265625	31076.99609375	25718.513671875	16329.0234375	5906.46923828125	8794.37109375	31246.513671875	26102.587890625	19950.17578125	6595.39501953125	30822.720703125	30076.25390625	34083.81640625	34746.828125	25608.361328125	30100.994140625	29372.673828125	30556.908203125	31079.2421875	29787.794921875	31207.021484375	33556.31640625	30091.26953125	30319.806640625	26054.212890625	28383.958984375	31154.798828125	32217.86328125	31719.2734375	34225.68359375	28567.634765625	32124.466796875	30327.306640625	33854.49609375	28652.271484375	32363.6796875	31027.94921875	29763.357421875	28656.802734375	29923.353515625	34471.0703125	26400.560546875	31792.099609375	29935.03125	31616.91796875	31334.46875	31502.54296875	31779.955078125	23374.162109375	29153.40625	31228.42578125	29274.86328125	30253.76953125	31928.26953125	30449.314453125	31524.552734375	29192.6875	30074.119140625	27789.6953125	28104.287109375	31461.970703125	31434.267578125	30407.314453125	32785.33203125	28129.140625	32342.0625	28832.3125	32120.96875	29170.974609375	31932.271484375	31169.212890625	29346.015625	28689.3203125	29804.384765625	32925.01953125	24761.14453125	32410.7421875	28884.189453125
360	480	21428.83984375	24768.890625	28592.248046875	29446.3671875	28010.810546875	33303.66796875	27281.326171875	21219.3671875	21262.685546875	24210.419921875	15283.625	27705.359375	23499.994140625	13867.904296875	21652.48046875	24529.220703125	28218.47265625	30885.197265625	27510.00390625	33077.375	27180.453125	21949.154296875	22447.046875	28903.146484375	24017.44921875	14460.4248046875	5384.693359375	8423.498046875	27825.041015625	24179.447265625	17709.8828125	6490.84033203125	27805.150390625	26422.55078125	29619.791015625	30337.0546875	22987.87890625	27163.287109375	25981.427734375	26919.1796875	27054.533203125	26056.623046875	27806.287109375	28643.203125	26848.70703125	27114.5625	23815.5859375	25157.35546875	27581.806640625	27512.380859375	27434.876953125	29544.677734375	24842.146484375	28076.615234375	26750.6328125	29908.935546875	25421.451171875	28440.7265625	27333.537109375	26499.474609375	25556.888671875	26363.587890625	30018.9765625	24223.07421875	28670.193359375	26836.06640625	28522.119140625	27639.744140625	27988.609375	27734.330078125	20868.5078125	26445.212890625	27798.119140625	25859.607421875	27113.42578125	27808.310546875	26919.1953125	27327.72265625	26595.861328125	26846.123046875	24064.96484375	24177.826171875	27503.8046875	26663.513671875	26260.37109375	29230.4609375	24553.6171875	28026.185546875	25140.849609375	28153.26171875	25591.728515625	27990.88671875	27189.3984375	26235.353515625	25355.33203125	26704.005859375	28042.98828125	22520.384765625	27473.71875	26629.205078125
480	600	19176.921875	22243.146484375	24620.439453125	26027.84375	23994.015625	29371.333984375	26068.146484375	18930.44921875	18980.541015625	22240.3984375	13662.099609375	26334.033203125	21129.876953125	12770.078125	19185.908203125	21984.896484375	24410.96484375	27403.9453125	24063.9765625	28501.376953125	24636.537109375	19325.39453125	20731.578125	24311.76171875	22230.578125	13028.220703125	4914.69775390625	7954.88134765625	24585.453125	21762.009765625	15028.6318359375	6331.3583984375	23658.3125	22598.169921875	24690.5	24899.048828125	19666.236328125	23518.806640625	22074.30859375	23280.068359375	22620.52734375	21752.48828125	23771.126953125	24331.875	22667.310546875	23326.458984375	21584.009765625	21439.978515625	22974.322265625	23833.837890625	23037.20703125	24299.416015625	21005.337890625	23873.322265625	22423.953125	25041.431640625	22109.173828125	24100.8828125	22994.013671875	22567.6015625	22004.16015625	22277.017578125	24314.51171875	21701.3671875	23665.626953125	23181.431640625	24494.560546875	23203.154296875	22604.244140625	23807.880859375	18458.22265625	22978.900390625	23486.041015625	22431.1796875	22936.466796875	23480.052734375	22586.486328125	23045.783203125	22868.33984375	22778.375	21450.75390625	20120.55078125	22479.712890625	22058.6875	22119.37109375	24417.400390625	20471.869140625	24186.5234375	21249.4609375	23936.91015625	22090.4140625	23242.541015625	22724.94140625	21925.419921875	21628.240234375	22244.205078125	23620.95703125	20296.4921875	21884.2109375	22641.65625
600	900	16033.767578125	18988.5859375	19161.916015625	21835.634765625	18244.521484375	22976.39453125	22319.6953125	16225.33984375	15636.63671875	18409.908203125	11467.078125	19644.630859375	18260.185546875	11501.7080078125	16041.58203125	18832.900390625	18920.560546875	22829.60546875	18575.64453125	22635.01171875	21620.64453125	16024.78515625	17677.4921875	20529.712890625	18865.03125	11200.7109375	4346.3173828125	7431.45849609375	18553.279296875	18337.119140625	11793.9345703125	6131.904296875	18200.939453125	17608.2265625	18995.60546875	18626.640625	16853.2421875	18552.455078125	16928.810546875	18258.841796875	17182.828125	16723.779296875	17654.2421875	18027.724609375	17671.76171875	17851.791015625	16543.935546875	16618.462890625	17461.25390625	17485.353515625	17620.384765625	17684.779296875	16096.341796875	17832.572265625	17228.404296875	18847.2578125	16968.802734375	18034.19140625	17451.203125	17166.357421875	16948.291015625	16882.3359375	16940.7734375	17525.01171875	17249.912109375	18307.58984375	18471.26171875	17797.431640625	17391.3984375	17765.138671875	15233.498046875	17956.419921875	17987.78125	17508.6015625	17028.591796875	17854.896484375	16930.93359375	17301.251953125	17826.74609375	17454.189453125	16645.294921875	15337.0712890625	17003.646484375	16138.470703125	16492.4453125	17784.955078125	15619.12109375	18077.14453125	16265.7607421875	17824.951171875	17421.75390625	17498.451171875	17283.025390625	16854.111328125	16776.865234375	16944.2734375	17091.92578125	16668.90234375	16384.404296875	17571.53515625
900	1200	13255.6689453125	15846.23046875	14158.7998046875	17017.75	13268.283203125	16981.09375	18227.830078125	13390.9873046875	12414.7451171875	15291.376953125	9313.48828125	15001.646484375	15019.0703125	9935.265625	13268.37109375	15581.783203125	14060.2509765625	17811.2109375	13419.076171875	17003.197265625	17362.216796875	12883.0087890625	13906.0830078125	14707.95703125	15026.3271484375	9258.28125	3982.90234375	6963.3662109375	13625.7646484375	15060.6953125	8967.6669921875	5973.51318359375	13273.25	13329.0390625	13950.15625	13395.04296875	12831.3271484375	13824.06640625	12509.509765625	13533.1650390625	13195.4072265625	12415.70703125	12933.9765625	13226.2607421875	12844.56640625	13336.3369140625	12615.7275390625	12327.24609375	12848.869140625	12395.4873046875	12739.2529296875	12989.3603515625	11885.5	12749.927734375	12863.48046875	13775.2255859375	13058.171875	13088.9794921875	12753.34375	12780.4423828125	12441.7958984375	12435.6767578125	11760.7001953125	12890.4404296875	12532.7744140625	13701.4111328125	13521.2646484375	12997.2861328125	12660.318359375	13176.1318359375	12226.5634765625	13469.671875	13543.0859375	13122.2431640625	12874.1044921875	13463.2919921875	12698.10546875	12615.0205078125	12845.6494140625	13068.53125	12996.2392578125	11649.8916015625	12507.2021484375	11362.5927734375	12337.5771484375	13254.2373046875	11551.396484375	13338.8134765625	12020.451171875	13339.2763671875	12914.3662109375	12762.3779296875	12358.255859375	12500.3896484375	12322.197265625	12637.49609375	11809.337890625	12776.654296875	11415.087890625	13224.0986328125
1200	1500	11948.837890625	13751.89453125	11293.84765625	14042.9130859375	11389.92578125	14059.4501953125	15993.828125	11292.7646484375	10702.8125	12963.3515625	8191.88671875	12512.1298828125	13053.169921875	9099.9736328125	11856.716796875	13731.8779296875	11282.046875	14537.2666015625	11244.0400390625	13545.013671875	15969.4208984375	11042.5849609375	11724.755859375	12085.6640625	13059.4052734375	9344.7841796875	3749.014404296875	6714.62744140625	11184.619140625	13134.591796875	7704.5390625	5884.04931640625	11179.3564453125	10948.4052734375	11791.9736328125	11326.5947265625	10548.642578125	11474.455078125	10560.9931640625	11304.2919921875	11236.828125	10626.158203125	10892.5908203125	11016.65625	10836.546875	10939.8671875	10356.890625	10423.41796875	10689.4912109375	10148.2158203125	10954.2001953125	10918.494140625	10034.26171875	10890.912109375	10668.9345703125	11472.330078125	10786.0810546875	10864.0380859375	10638.931640625	10847.8603515625	10266.0205078125	10320.1044921875	8869.3759765625	10890.564453125	10880.169921875	11217.53515625	11508.8037109375	11106.92578125	10560.6875	10928.6748046875	10603.890625	11092.845703125	11331.3642578125	10924.44921875	10666.904296875	11503.9306640625	10363.3408203125	10640.12109375	10683.9580078125	10733.705078125	10743.94921875	9167.84375	10031.255859375	9351.8515625	10134.95703125	10867.7255859375	9790.8095703125	10798.771484375	10232.671875	10942.5830078125	10601.3212890625	10550.51953125	10356.2744140625	10720.462890625	10169.794921875	10591.3017578125	9256.150390625	10821.578125	10020.4853515625	10748.2392578125
1500	1800	11302.8994140625	12452.91796875	10017.7783203125	12363.8935546875	10079.2373046875	12475.1572265625	14176.7783203125	10375.4609375	9587.7373046875	10955.2412109375	7693.73388671875	11302.7001953125	12025.0009765625	8153.8583984375	11218.57421875	12609.46875	10000.005859375	13041.58203125	10654.330078125	12578.4814453125	14177.4013671875	9928.2265625	10196.404296875	10477.001953125	12177.80859375	8470.96484375	3613.75634765625	6566.7412109375	9649.130859375	12214.2685546875	7078.49267578125	5876.37060546875	10168.2626953125	10211.1787109375	10687.89453125	10269.8056640625	9573.076171875	10325.6357421875	9625.87109375	10256.234375	10228.71875	9698.58203125	9751.912109375	10150.8056640625	9619.890625	9700.44921875	9058.287109375	9699.341796875	9873.8505859375	9098.84765625	10108.3720703125	10304.654296875	9425.7490234375	9939.658203125	9779.9150390625	10686.66796875	9779.68359375	9843.318359375	9433.3515625	9969.1123046875	9514.48046875	9331.3515625	8625.669921875	9832.521484375	9580.0419921875	10338.884765625	10393.3857421875	10443.1484375	10110.0478515625	9829.6064453125	9308.0546875	10186.7880859375	10343.76953125	9894.9052734375	9778.2763671875	10591.62109375	9539.2509765625	9686.80859375	9595.7607421875	9753.87109375	9499.3359375	8808.8134765625	9483.794921875	8605.4697265625	9430.7294921875	10280.3388671875	8971.2626953125	10045.525390625	9195.890625	9809.640625	9484.0390625	9740.830078125	9390.2265625	9678.73046875	9306.1796875	9602.2314453125	8722.154296875	9574.986328125	8739.103515625	9731.0986328125
1800	2100	10838.4404296875	12032.591796875	9172.1826171875	11488.6953125	9228.9638671875	11910.244140625	12946.982421875	9642.5927734375	8908.564453125	10387.15234375	7295.16015625	9590.6044921875	10695.486328125	8182.27001953125	10751.3447265625	12049.8447265625	9183.978515625	11594.98046875	9429.435546875	11151.2060546875	13001.3583984375	9528.1474609375	9285.904296875	9328.234375	11353.638671875	7817.68505859375	3588.532958984375	6467.71240234375	8986.390625	11213.15625	6784.14990234375	5897.9921875	9531.025390625	9306.57421875	10198.8525390625	9822.365234375	8862.599609375	9875.02734375	9226.0927734375	9710.1591796875	9525.4521484375	9266.37109375	9642.794921875	9445.986328125	9359.8349609375	9110.85546875	8878.69921875	8752.2451171875	9149.4619140625	8498.685546875	9541.6318359375	9652.400390625	8688.11328125	9207.2646484375	9249.6201171875	9787.3515625	9139.2158203125	9292.80859375	8826.0126953125	9413.2138671875	8808.97265625	9051.3427734375	7822.6943359375	9041.876953125	9094.810546875	9575.8203125	9904.2529296875	9274.671875	9704.521484375	9678.0615234375	8540.5185546875	9453.28125	9887.345703125	9412.1484375	9048.646484375	10272.4462890625	9211.359375	9337.2265625	8962.8388671875	9116.8251953125	9009.541015625	8406.208984375	8653.720703125	8652.65234375	8948.3203125	9956.5185546875	8524.615234375	9170.009765625	8793.6748046875	9648.609375	8925.9580078125	9156.27734375	8778.564453125	9033.4697265625	8684.4638671875	9006.896484375	7919.5419921875	8711.603515625	7887.65673828125	9187.22265625
2100	2400	10308.8857421875	11009.12109375	8371.4521484375	10487.33203125	8884.224609375	10522.294921875	12023.302734375	8706.6875	8173.09521484375	8938.673828125	6992.45751953125	9322.466796875	10074.302734375	8268.4501953125	10236.140625	11077.2900390625	8350.3076171875	10792.6669921875	9068.765625	10844.7900390625	11855.0322265625	8010.6171875	8757.5185546875	7710.396484375	10753.1357421875	7747.2158203125	3535.4248046875	6340.513671875	8066.5859375	10401.1083984375	6404.4013671875	5886.498046875	8985.724609375	8701.8173828125	9471.322265625	9082.5556640625	8444.8447265625	9246.205078125	8519.4853515625	8947.662109375	9095.1962890625	8876.0849609375	8713.8974609375	8911.68359375	8375.0029296875	8510.9306640625	8667.4931640625	8344.2392578125	8664.9443359375	8145.02001953125	8937.5546875	9021.1484375	8399.5849609375	8834.423828125	8732.3955078125	9375.9609375	8263.3984375	8575.435546875	8105.7314453125	8839.2685546875	8150.65478515625	8562.990234375	7393.005859375	8856.3505859375	8595.978515625	8832.4208984375	9633.873046875	8850.291015625	8361.9140625	8969.9208984375	7914.73681640625	8782.7001953125	9219.41796875	8629.1337890625	9296.3837890625	9527.572265625	8498.1279296875	8717.6826171875	8222.78515625	8493.80859375	8399.841796875	7731.3642578125	8182.896484375	7670.5068359375	8398.259765625	9578.76953125	8057.0859375	8898.8544921875	8258.107421875	8927.525390625	8310.822265625	8495.119140625	7977.80517578125	8565.6142578125	8264.0546875	8503.970703125	7286.158203125	8406.671875	7656.8955078125	8404.173828125
2400	2700	9844.640625	10492.8125	7717.185546875	9752.5546875	8156.09814453125	9993.8408203125	12070.2734375	8324.5478515625	7652.3388671875	8888.1298828125	6560.26171875	7990.53076171875	9395.783203125	7117.06982421875	9737.830078125	10574.6103515625	7767.1884765625	9587.556640625	8454.38671875	9583.5478515625	11576.8486328125	7873.615234375	8226.798828125	7681.43408203125	9497.302734375	6981.447265625	3572.1455078125	6265.4658203125	7500.95263671875	10173.140625	6101.521484375	5937.9794921875	8670.46484375	8442.158203125	8996.1572265625	8774.8154296875	7789.916015625	8611.5126953125	8232.9296875	8356.07421875	8828.37890625	8414.3896484375	8223.9140625	8730.2626953125	7809.49072265625	7997.05126953125	7823.9560546875	7840.39697265625	8379.8916015625	7910.5986328125	8448.5	8802.00390625	7614.61376953125	8072.13134765625	8123.93603515625	8741.912109375	7828.87744140625	8088.4755859375	7587.06689453125	8197.0869140625	7693.6943359375	8083.8046875	6881.96240234375	8217.041015625	8503.9462890625	8276.4130859375	8673.8564453125	8222.5234375	8397.7646484375	8599.23046875	7384.74267578125	8441.1064453125	8631.1533203125	8105.89453125	8101.62841796875	9120.884765625	7866.9853515625	8700.1748046875	7898.64697265625	7995.1298828125	7610.0908203125	7265.5625	7703.06396484375	7226.0166015625	7912.529296875	8812.7744140625	7464.05419921875	8040.1337890625	7673.390625	8394.720703125	7860.22119140625	8072.18798828125	7342.53955078125	7927.2412109375	7671.9150390625	7997.080078125	6931.21630859375	7910.4609375	7915.9189453125	8005.6494140625
