frame_start	frame_end	parasubiculum	HATA	fimbria	hippocampal_fissure	HP_tail	presubiculum-head	presubiculum-body	subiculum-head	subiculum-body	CA1-head	CA1-body	CA3-head	CA3-body	CA4-head	CA4-body	GC-ML-DG-head	GC-ML-DG-body	molecular_layer_HP-head	molecular_layer_HP-body	Lateral-nucleus	Basal-nucleus	Central-nucleus	Medial-nucleus	Cortical-nucleus	Accessory-Basal-nucleus	Corticoamygdaloid-transitio	Anterior-amygdaloid-area-AAA	Paralaminar-nucleus
0	30	696.19206	251.25666	461.81624	429.90839	232.33221	381.6295	481.70144	140.13809	401.24674	249.48562	249.72784	365.35241	424.58077	354.57406	510.81285	362.37527	493.17537	282.15137	408.7607	175.41945	338.94292	198.30022	320.67313	392.20704	470.54427	491.83118	637.04891	237.27104
30	60	5454.73184	4426.66989	4725.51941	6615.20169	5829.64008	5947.84794	7238.24445	5016.43479	5522.7071	5346.09306	4573.70486	6997.36253	4293.33377	7250.55482	4957.92544	6876.78093	5152.82247	5798.43112	5451.5807	4734.08274	5003.37274	4805.573	5212.70275	5227.92436	4807.64913	4808.06694	6613.73668	5587.54789
60	90	11897.16954	11021.27719	13051.37432	13915.11888	12748.8667	13259.69172	14526.17397	12252.93463	12388.67235	11983.82201	10092.71762	15756.18606	11076.1259	14782.06611	12000.28039	13960.78331	12169.14785	13175.96264	12062.36	11299.42736	12227.61714	12515.39977	10945.91429	10804.92477	11306.4309	11132.46966	14679.63105	12277.23545
90	120	19472.44469	16836.31529	22028.07209	22555.50891	20157.43312	22390.30363	21833.20635	22291.60275	21948.67999	19230.97761	19196.85245	19883.59229	19100.25124	21155.67988	21199.70542	20546.79604	21546.52015	21036.22187	21100.6875	19892.65325	20315.31745	19639.8223	19658.82452	19116.04679	19017.38245	18622.18965	22412.34834	23009.1786
120	150	25031.97206	20795.05052	26798.97186	27891.15259	25768.51452	29346.68511	26866.76952	28316.94221	26286.1585	24465.95327	21686.18053	27193.72972	22552.37706	29323.40074	25614.01309	28115.33351	25816.08318	27283.81382	25226.28853	27117.40096	27925.50889	24544.52398	23166.35352	22959.90728	24919.77358	22050.89839	28240.81421	28162.03287
150	180	26147.69657	19733.17656	26427.02444	28464.46235	26587.79166	30222.97414	27427.48363	29278.14118	26723.83631	25934.79792	24506.06928	27209.7342	23861.95554	29616.21852	26422.79277	28518.18449	26706.63004	29426.70136	26368.73225	26800.28016	26866.77208	25907.17642	24967.89814	24713.85938	24289.64168	20603.97105	28776.65628	27506.99607
180	240	23209.42698	20093.639	26905.68373	27089.6923	25106.30681	27038.30829	26730.80901	27684.38581	26555.53428	25408.55818	23660.09102	26825.09707	23675.45346	28042.13493	26052.44033	26948.27946	26336.95933	27674.69592	25922.40366	27854.56562	27324.16676	25748.73415	23674.41046	23557.40501	24590.95246	22098.17	25814.52703	27495.95368
240	300	22016.01321	20512.86	23954.95589	26699.10597	24822.92695	26618.88977	25755.19915	28707.46819	26849.848	24716.03321	22080.03231	24083.27585	21869.11379	27603.61516	25215.27455	26473.62828	25380.14654	27313.6712	24884.73824	26493.59743	27923.65694	24102.3062	22925.72791	22931.05007	24623.19078	21605.9593	23928.66884	28935.23322
300	360	22226.65704	20285.9533	24683.82015	25076.94029	22546.57389	26081.50453	23808.50876	27078.3434	25199.525	24502.5642	21291.93137	21519.71451	20952.91494	25317.26142	23473.4114	24474.60463	23635.85232	26037.76423	23373.67017	27283.26997	27015.64771	23960.39797	22294.29973	22435.81712	24245.09632	21801.55189	25889.9249	26934.98226
360	480	21039.13605	18012.34243	22511.07515	23065.6561	21609.57004	24573.73337	21692.60287	25700.18255	23552.6261	22082.64438	19518.88751	20561.30273	18487.31597	24137.30733	21615.95509	23200.21717	21797.80668	24279.6051	21112.06666	24228.34444	24436.45593	22238.5047	21115.66947	21308.61191	22609.17496	19493.35902	22426.97982	23776.05008
480	600	18346.58648	17049.39333	18901.06243	20461.95948	18922.04852	21483.36569	19523.50768	22247.20952	20611.06808	20316.40055	17781.44581	17947.37516	16124.84456	20590.54947	18017.06257	20330.23213	18546.95226	21302.92949	18568.47872	22657.45393	22509.54867	19500.84059	19231.89904	19209.62944	20410.43633	18034.93646	21139.73827	21863.72879
600	900	15047.35018	14989.45683	16222.63721	16500.34805	15433.66935	17575.79164	15622.72415	18100.75501	16794.49844	16924.05244	14794.22973	14552.29519	13687.00112	16662.39039	15156.86595	16520.93894	15454.0788	17417.061	15369.23448	19033.02189	18495.95309	16814.01949	16870.70913	17179.69061	17507.57357	15601.08461	16315.95911	17990.73717
900	1200	11161.47974	12843.88567	13113.77712	12783.77093	12876.74631	13183.43402	12306.14765	14245.89058	13767.23291	13093.47305	12526.00199	11826.03697	11442.75659	12983.46354	12598.72613	12791.26225	12805.34864	13401.76205	12576.8383	15438.87142	14595.35351	14024.593	14301.07234	14726.34709	13972.01963	12791.49003	13524.00099	14142.09073
1200	1500	9663.90433	9867.87771	11601.41547	11145.4893	10852.2859	11436.03653	10703.37874	12178.24645	11335.71049	11249.90029	11244.53127	9880.97128	10203.99735	11140.41587	10657.59408	11178.02792	10878.8145	11651.80605	10863.01232	12814.14101	12620.46991	12775.83562	12648.41166	12538.13271	11768.32244	10363.76921	10997.0527	12318.557
1500	1800	8225.57361	9726.06746	10396.72634	9697.17443	9807.03722	9929.05355	9583.7911	11073.16067	9808.28051	10094.17191	9644.096	9791.40704	9219.24449	10062.93583	9299.34794	10153.9882	9463.34013	10295.32411	9483.62787	11243.93129	10173.93264	10510.66762	11278.76547	11154.40501	10200.10862	9406.03713	9072.18665	9889.71116
1800	2100	8018.42091	9399.91849	10440.75407	8810.57515	9147.38888	8968.79764	9252.40684	10335.49657	9861.42298	9323.08157	9901.37032	8662.17928	8977.15748	8932.89402	9179.7283	8980.82242	9420.09427	9485.0535	9389.31875	10122.20094	9451.92542	10588.01745	10809.22859	11127.9082	9905.06538	9090.6987	8744.97841	9251.28948
2100	2400	6756.60009	7999.33687	9162.7714	7802.85453	8352.87146	7755.664	8368.60723	9273.71277	8412.53404	8225.05605	8127.24054	7557.44802	7653.64294	7947.38809	7630.61267	8051.49985	7825.2802	8204.76326	7969.33278	9741.89121	8378.19393	8908.36321	9570.96898	9293.47311	7995.82175	7421.59192	8010.62357	8241.87702
2400	2700	6452.28636	7379.02383	8409.91048	7767.17428	7975.88814	7984.14837	7771.01671	8639.55036	8177.75832	7723.88249	8501.1096	7080.47364	7490.18204	7744.64599	7478.07196	7663.13642	7675.50397	7980.24889	7841.28936	8926.06909	7972.90065	9876.19394	10211.63416	10025.08657	8338.83579	7591.51124	6523.46053	7727.99763
2700	3000	5634.29358	7238.96187	9066.74696	6654.97961	8074.00348	6743.45147	7352.73333	8056.98255	7307.92122	7239.84073	7602.47124	6367.19392	7000.46429	6723.52677	6874.32732	6979.88575	7122.85146	7228.22033	7121.24552	8153.90632	6764.76103	8023.0047	9107.68397	9084.10631	6945.81933	6416.08266	5664.88278	6960.58884
3000	3300	5879.97927	7473.39313	7955.77727	6554.5257	6824.08109	6904.06271	6611.71704	7395.80784	6738.15974	7233.18521	7478.84002	6568.03988	6638.6868	7124.81811	6130.24335	7293.78524	6355.86871	7290.83683	6596.58477	7665.80568	6875.56358	8385.85625	8042.95399	7694.20115	6867.67236	6778.13916	6150.57602	6506.5218
3300	3600	4814.33406	6580.6901	7289.87086	5835.46687	7104.88678	5776.10597	6080.01262	6612.38702	6621.58107	6298.8012	7126.49329	6077.12998	6335.28843	5706.57915	5893.53507	5978.14395	6212.69162	6064.93517	6332.34967	7018.61452	5868.06493	7138.1394	7475.07429	7485.48522	5792.83605	5362.85841	5396.83365	5999.40006
3600	3900	4722.69832	6743.9104	6832.63316	5719.52325	7109.74833	6063.47195	5878.02694	6448.33102	6451.0833	5899.7663	6832.58817	6578.00227	5872.50713	6362.12006	5965.59704	6338.43547	6194.68315	6067.8956	6203.91293	6411.08645	5162.28933	6213.73633	6977.09304	6850.46472	5657.45428	5225.1933	4786.4907	5021.39439
3900	4200	4196.04405	6090.27005	5117.15513	5260.22321	5584.11591	5748.94075	5004.19927	6259.83597	5089.18929	5451.44469	6829.14252	5461.98806	5804.28922	5734.33004	4838.015	5735.66754	4975.59933	5477.8485	5345.87698	6114.3173	4807.23211	7053.81238	6929.67379	6758.67607	5494.09435	5635.9212	4893.23375	4770.16782
4200	4500	3945.46869	6053.41549	6909.83422	5175.51998	5057.91454	4691.34575	5112.90956	5667.35396	6167.33474	5092.85168	5563.64082	5068.04636	6253.81825	4964.95714	6048.72725	4943.43195	5933.87928	5235.30209	5784.57247	6243.67152	4479.84043	6273.12348	6466.27885	6557.70327	4621.29383	5273.10534	3702.4544	4737.13392
4500	4800	3941.91721	4687.40207	5792.74283	4766.19979	5648.62848	4187.61558	5382.53731	5205.12355	5778.6233	4798.40483	5891.24972	5422.10087	5707.46569	5205.00373	5843.08206	4998.17282	5931.957	4976.61411	5861.16729	4725.75441	4186.56848	4872.92208	5338.28583	5169.93729	4155.32069	4044.92571	4024.43154	4259.36166
4800	5100	3821.60454	5033.49468	6249.57556	4677.66044	4362.98961	4571.86551	4566.74387	4839.26434	5256.21852	5059.1199	6745.85606	5691.45098	5826.46647	5015.78752	5267.60888	4947.87643	5358.03977	5008.26423	5531.14123	6101.17168	5237.46029	4857.50745	4730.71802	4829.50603	4725.23831	4282.54653	3962.52776	4665.79136
5100	5400	3460.32703	4951.02077	5763.53844	4351.64465	4817.98291	3818.93904	4966.56487	4512.24632	5488.61589	4800.64063	5390.31403	5713.16796	5278.31062	5104.23928	5033.55519	4916.5425	5019.67612	4813.56136	5077.74239	5312.48435	3940.3017	5670.80495	6537.66556	6070.16455	4367.81628	4296.00944	3861.90005	3737.2364
