frame_start	frame_end	Left-Cerebral-White-Matter	Left-Cerebellum-White-Matter	Left-Cerebellum-Cortex	Left-Thalamus	Left-Caudate	Left-Putamen	Left-Pallidum	Brain-Stem	Left-Hippocampus	Left-Amygdala	CSF	Left-Accumbens-area	Left-VentralDC	Left-choroid-plexus	Right-Cerebral-White-Matter	Right-Cerebellum-White-Matter	Right-Cerebellum-Cortex	Right-Thalamus	Right-Caudate	Right-Putamen	Right-Pallidum	Right-Hippocampus	Right-Amygdala	Right-Accumbens-area	Right-VentralDC	Right-choroid-plexus	AirCavity	Skull	Vermis	Pons	CSF-ExtraCerebral	Head-ExtraCerebral	ctx-lh-bankssts	ctx-lh-caudalanteriorcingulate	ctx-lh-caudalmiddlefrontal	ctx-lh-cuneus	ctx-lh-entorhinal	ctx-lh-fusiform	ctx-lh-inferiorparietal	ctx-lh-inferiortemporal	ctx-lh-isthmuscingulate	ctx-lh-lateraloccipital	ctx-lh-lateralorbitofrontal	ctx-lh-lingual	ctx-lh-medialorbitofrontal	ctx-lh-middletemporal	ctx-lh-parahippocampal	ctx-lh-paracentral	ctx-lh-parsopercularis	ctx-lh-parsorbitalis	ctx-lh-parstriangularis	ctx-lh-pericalcarine	ctx-lh-postcentral	ctx-lh-posteriorcingulate	ctx-lh-precentral	ctx-lh-precuneus	ctx-lh-rostralanteriorcingulate	ctx-lh-rostralmiddlefrontal	ctx-lh-superiorfrontal	ctx-lh-superiorparietal	ctx-lh-superiortemporal	ctx-lh-supramarginal	ctx-lh-frontalpole	ctx-lh-temporalpole	ctx-lh-transversetemporal	ctx-lh-insula	ctx-rh-bankssts	ctx-rh-caudalanteriorcingulate	ctx-rh-caudalmiddlefrontal	ctx-rh-cuneus	ctx-rh-entorhinal	ctx-rh-fusiform	ctx-rh-inferiorparietal	ctx-rh-inferiortemporal	ctx-rh-isthmuscingulate	ctx-rh-lateraloccipital	ctx-rh-lateralorbitofrontal	ctx-rh-lingual	ctx-rh-medialorbitofrontal	ctx-rh-middletemporal	ctx-rh-parahippocampal	ctx-rh-paracentral	ctx-rh-parsopercularis	ctx-rh-parsorbitalis	ctx-rh-parstriangularis	ctx-rh-pericalcarine	ctx-rh-postcentral	ctx-rh-posteriorcingulate	ctx-rh-precentral	ctx-rh-precuneus	ctx-rh-rostralanteriorcingulate	ctx-rh-rostralmiddlefrontal	ctx-rh-superiorfrontal	ctx-rh-superiorparietal	ctx-rh-superiortemporal	ctx-rh-supramarginal	ctx-rh-frontalpole	ctx-rh-temporalpole	ctx-rh-transversetemporal	ctx-rh-insula
0	30	731.4158935546875	721.955322265625	1531.14794921875	997.7581176757812	1062.0650634765625	1945.668212890625	1284.7967529296875	1337.3494873046875	232.96934509277344	4093.004150390625	457.5242614746094	4012.69921875	1370.1817626953125	5961.97119140625	836.923095703125	916.7171630859375	1589.79833984375	1217.6572265625	808.3160400390625	1449.8353271484375	903.4345703125	1073.6064453125	3714.898193359375	1440.820556640625	1021.7845458984375	-1527.4285888671875	183.56826782226562	556.900634765625	2291.1318359375	1441.6143798828125	671.3796997070312	232.52865600585938	2825.606201171875	4393.18994140625	1804.6839599609375	2234.57666015625	2768.7626953125	794.7153930664062	1805.9471435546875	1402.0206298828125	1801.9298095703125	1748.1334228515625	2235.02197265625	2903.974609375	3360.373779296875	1964.218017578125	3030.602294921875	2113.3779296875	2402.70849609375	1419.6597900390625	2044.927734375	2032.3482666015625	1055.1256103515625	2852.832275390625	1912.678466796875	1734.85693359375	3316.21923828125	1847.0523681640625	2123.081787109375	2275.09912109375	2663.3671875	1359.333740234375	6.699373245239258	2367.210205078125	5482.0263671875	2918.31103515625	3251.45166015625	3396.9765625	1149.931640625	2892.83203125	2807.991455078125	524.3981323242188	1855.03173828125	1924.6495361328125	1705.6312255859375	1590.916748046875	2199.954345703125	2209.81005859375	1769.52685546875	1735.8843994140625	3430.59423828125	2007.3812255859375	2442.85888671875	1465.3236083984375	1659.4739990234375	1719.9100341796875	605.4043579101562	3808.322021484375	1292.6292724609375	1665.015380859375	3544.634765625	1569.142822265625	2097.50048828125	1712.2528076171875	2965.785400390625	1548.7978515625	547.3565673828125	2325.663818359375	5271.45654296875	3291.76220703125
30	60	6410.93603515625	7384.21875	12659.53125	10639.5791015625	8575.419921875	13092.1103515625	11667.9990234375	11161.1396484375	6964.9619140625	17853.7578125	1668.7330322265625	15414.75390625	10241.1689453125	36477.14453125	6793.962890625	7716.76171875	12561.1357421875	9754.822265625	9465.6826171875	12769.6005859375	10055.9541015625	9846.0947265625	16741.76953125	21521.33984375	9501.2109375	-6295.224609375	2321.445068359375	3476.3701171875	15924.2080078125	10637.1064453125	4210.84716796875	2002.66162109375	19040.6953125	26410.97265625	14746.662109375	23390.46875	20271.490234375	7030.8720703125	14933.248046875	12832.865234375	13982.41796875	16095.66015625	16323.822265625	21911.375	19653.810546875	15714.1181640625	18464.341796875	16696.9921875	20287.521484375	12580.3798828125	16976.671875	14645.6435546875	10291.0185546875	22717.5546875	15655.861328125	14299.73828125	22606.744140625	17194.4140625	15854.0087890625	14578.455078125	18648.001953125	11779.701171875	-2199.94775390625	14847.1943359375	33693.96875	19104.23828125	19375.869140625	24089.119140625	12381.1552734375	22688.79296875	20713.642578125	5620.7001953125	15831.3720703125	14649.5498046875	14159.7021484375	17806.650390625	15884.8857421875	21613.279296875	18674.302734375	15638.8251953125	17901.302734375	14915.69140625	18327.330078125	10200.521484375	15524.6826171875	14207.033203125	7441.59521484375	23102.791015625	11398.212890625	12296.6708984375	21252.58984375	13769.560546875	14763.1865234375	14332.421875	16860.61328125	10942.7802734375	-1151.342529296875	14228.2431640625	33462.34375	19952.3515625
60	90	13015.0283203125	16252.337890625	25792.333984375	22446.6953125	19747.568359375	33508.07421875	20530.35546875	22866.404296875	17385.216796875	28074.31640625	2151.073486328125	27973.466796875	20531.439453125	64391.9921875	14313.134765625	17239.00390625	26878.400390625	21711.927734375	18384.580078125	26252.828125	23391.61328125	16698.03515625	26761.021484375	38938.42578125	21153.08984375	-2457.622314453125	4892.01318359375	6007.337890625	32248.556640625	19683.7421875	6961.28369140625	4024.805419921875	38922.515625	48014.67578125	33877.28515625	48657.69921875	33434.61328125	18052.43359375	32775.9375	28452.68359375	30080.01953125	35535.375	33541.5390625	47011.8984375	43216.1015625	31780.134765625	33737.7890625	28772.59375	40116.33984375	30252.49609375	38323.11328125	30259.923828125	20017.533203125	44757.93359375	31774.259765625	30420.591796875	37619.0234375	35732.5703125	32463.115234375	31477.822265625	36163.51171875	24289.224609375	3842.23046875	28527.3046875	66869.7890625	33020.58984375	33589.390625	50133.90234375	25141.57421875	48093.33984375	37617.49609375	12408.794921875	33916.640625	32481.9140625	28726.826171875	41130.8828125	33187.37109375	40375.63671875	35601.9453125	31511.029296875	31616.96875	29320.912109375	35508.76171875	29716.5234375	36163.39453125	33260.8984375	14615.0419921875	43700.15625	24368.046875	28021.83203125	45744.84765625	31015.154296875	29303.5859375	28485.880859375	33925.390625	23141.47265625	6155.1376953125	26060.87890625	62729.4609375	33871.35546875
90	120	20611.173828125	25648.990234375	41273.65625	35747.82421875	28448.130859375	50238.58984375	38054.11328125	36551.64453125	26095.935546875	44079.95703125	2852.630859375	47352.484375	33589.4140625	87516.2421875	22484.673828125	27346.58203125	42432.16015625	35352.28515625	31062.517578125	42849.8046875	37325.4609375	29597.0390625	44937.93359375	46742.69140625	33056.07421875	-3384.094482421875	7379.77490234375	9136.8857421875	50378.04296875	30695.7734375	10408.095703125	6068.12744140625	59545.5546875	70607.421875	49671.54296875	79306.6953125	57970.71875	30269.560546875	53590.6484375	46141.46484375	45797.21484375	57218.546875	52609.80078125	70554.625	64916.40625	51696.76953125	48015.81640625	49268.36328125	66630.875	49076.41015625	56815.90625	49538.0625	35047.6875	67211.15625	52091.17578125	46526.30078125	64904.3203125	59291.49609375	51498.9609375	50167.76171875	54348.42578125	38405.46484375	-2145.466064453125	46283.171875	102630.140625	50776.1171875	54512.40625	72331.7734375	38016.23046875	77917.0859375	57842.71484375	21672.361328125	54258.015625	50711.77734375	42651.5234375	66058.15625	53771.17578125	68356.5390625	58744.7109375	50846.29296875	46991.2578125	44606.7421875	55168.921875	42084.296875	55852.31640625	50046.61328125	25248.78125	67593.2421875	40017.50390625	44453.859375	68371.265625	48828.296875	46000.546875	48294.1875	52487.16015625	38373.0859375	-2995.24267578125	37408.47265625	98173.2578125	53417.07421875
120	150	25688.72265625	32590.361328125	51577.80859375	44497.4453125	40635.19921875	63744.84765625	41357.30859375	44742.37109375	33512.80859375	47696.65234375	3424.924072265625	75400.765625	41179.78125	111793.4921875	27700.38671875	34905.01953125	51592.21484375	43323.765625	33917.765625	53258.484375	48477.4765625	36638.4140625	44162.60546875	64536.64453125	39506.5	-6860.841796875	9256.35546875	10301.8623046875	54233.01953125	36875.8125	10790.4140625	7273.1416015625	74768.640625	95316.0625	62156.04296875	94570.953125	63995.40234375	38156.39453125	65604.640625	58766.0703125	58224.66796875	71279.6484375	65093.0625	88192.4375	78645.8359375	64525.18359375	50387.00390625	56326.65625	79323.8125	57464.64453125	70745.8984375	62919.546875	39615.90234375	80206.8515625	61857.1640625	57919.48828125	68448.8984375	71701.28125	61839.265625	61043.58203125	64673.125	48121.90234375	-1742.6246337890625	53823.09765625	111494.953125	60278.01171875	65897.546875	85456.953125	48738.11328125	95056.8984375	68397.1328125	27890.064453125	67184.390625	62973.27734375	52126.56640625	80209.921875	61162.59765625	79438.796875	70341.2265625	62943.3515625	56996.75390625	55437.9296875	69299.0	50061.3046875	71221.4375	63365.85546875	30932.263671875	82227.2890625	49274.12890625	53650.0625	84761.375	61082.8984375	55920.09765625	58971.53125	59812.046875	47295.390625	-499.7590026855469	45030.9140625	121546.421875	61412.49609375
150	180	26779.61328125	31719.6328125	53099.9921875	44979.8671875	40289.62109375	64543.8984375	46426.87109375	47307.4765625	37201.56640625	47583.92578125	519.4615478515625	79191.1796875	44458.41015625	95893.09375	28809.8046875	35710.18359375	54252.98828125	45708.16796875	38561.55078125	59083.05859375	49716.04296875	39356.64453125	47808.171875	70828.25	42910.0625	-3578.244873046875	9556.9013671875	10007.1337890625	57050.46484375	39287.07421875	9513.154296875	7519.06005859375	74979.3203125	84098.8125	66822.3515625	98770.0078125	62567.92578125	40531.01171875	67352.765625	61599.71875	65866.7421875	74571.09375	66176.8203125	89338.453125	82069.015625	68760.703125	52382.125	62014.51953125	86282.328125	62649.046875	72227.0390625	67183.2890625	43540.609375	88076.2265625	63436.4765625	61064.01953125	75176.515625	76576.1328125	63853.44140625	61588.484375	64106.0078125	50058.96484375	4307.900390625	54318.02734375	112316.5	60101.41015625	72976.4453125	88185.46875	50581.23046875	101510.2578125	69671.2578125	32733.248046875	69914.5	65191.35546875	48333.296875	85046.0703125	66006.0390625	84591.1171875	69267.375	67709.9453125	46490.6953125	49853.07421875	68947.3359375	56504.671875	71904.6015625	69139.7265625	34323.46484375	83438.875	50361.77734375	56314.39453125	81235.1328125	64012.67578125	58610.09375	63286.3125	59569.734375	49488.34375	3849.966552734375	46188.45703125	109666.2578125	62819.5546875
180	240	27055.314453125	33049.01171875	53584.00390625	45694.3359375	41066.1171875	65089.15234375	44252.828125	46965.765625	37394.5234375	49873.90625	1805.414794921875	73213.609375	45496.0546875	86674.09375	28845.580078125	35052.2265625	54009.41796875	45567.63671875	40572.59375	58170.3828125	46771.80859375	37003.60546875	45036.8515625	72019.4765625	47192.14453125	5686.0263671875	9490.990234375	9829.388671875	55404.48046875	37878.44921875	8819.712890625	7664.78173828125	72027.7109375	87982.0	65594.8359375	95488.1953125	66316.2578125	41265.24609375	68367.1171875	63438.43359375	57735.27734375	75099.7578125	68302.578125	85472.8515625	80066.0	69456.734375	48613.33203125	58769.48046875	81968.8203125	63893.76171875	72062.8984375	67417.3359375	43830.35546875	85463.046875	61984.859375	62617.82421875	68642.578125	75829.953125	62585.0703125	60257.8203125	63679.20703125	50951.81640625	7471.4443359375	53971.796875	107158.8125	60312.12109375	65291.38671875	82081.7734375	51522.76171875	99139.7890625	70435.2890625	32354.140625	71385.8359375	67064.171875	54712.94921875	86891.3359375	64485.4375	81926.65625	70061.4375	67236.8125	48334.85546875	53076.8671875	71415.21875	55247.05078125	69753.859375	64821.875	37392.74609375	79203.703125	49606.1171875	56988.98828125	83310.4375	64379.8359375	58176.38671875	62708.30078125	60103.50390625	50749.2265625	9878.0146484375	42374.125	114567.578125	61158.3125
240	300	25802.3515625	31041.71875	51300.35546875	45513.1953125	41482.78515625	65226.71484375	43568.60546875	44089.765625	35504.08203125	49218.859375	1229.6116943359375	71612.2421875	44446.49609375	72023.3671875	26876.177734375	32679.0703125	51029.84765625	45113.046875	40082.91796875	58771.58203125	45933.74609375	37191.2734375	44997.81640625	63715.171875	47040.09765625	-812.8464965820312	8228.294921875	9408.42578125	49724.4375	38387.91015625	7535.8955078125	7828.49072265625	65517.16796875	76323.59375	59649.046875	91512.6796875	63240.8984375	41315.6015625	63893.75390625	63464.7890625	56729.8515625	71978.8359375	65855.0234375	78040.640625	74545.6015625	64347.15234375	47996.29296875	56003.6953125	76780.5859375	62597.13671875	66885.1328125	63657.19921875	42846.96875	74421.4765625	57710.6796875	57612.63671875	61591.53515625	72444.0390625	60586.59375	56251.9375	60690.68359375	48508.37890625	13369.31640625	54634.2421875	101081.3515625	57081.79296875	58024.53125	75568.296875	48139.6796875	90793.953125	67612.3515625	34519.74609375	66920.03125	65335.27734375	50650.25390625	81184.265625	63361.0703125	75686.0703125	66621.3984375	64146.99609375	45604.42578125	50535.59375	68658.4453125	56388.59765625	66538.875	64205.734375	36610.76171875	75661.015625	48942.1171875	54325.69921875	72983.0546875	62600.515625	56109.55078125	59782.4765625	56985.171875	49490.6796875	17075.798828125	42396.1484375	100824.4921875	55713.546875
300	360	23212.533203125	28610.275390625	47181.3046875	44120.63671875	45367.27734375	62415.0390625	42934.05078125	41047.95703125	32445.89453125	41848.89453125	-744.1661987304688	58693.4453125	43662.71484375	69933.0703125	24265.35546875	30032.5078125	47748.25	42641.2578125	42302.6328125	55270.37109375	43641.62890625	33768.984375	43752.546875	64268.14453125	45570.45703125	7231.47021484375	7115.35693359375	8728.6357421875	43767.8671875	35811.609375	5444.84130859375	7780.04150390625	60374.9921875	67479.9609375	59496.01953125	81715.2265625	61710.4375	43596.5546875	59199.10546875	57602.859375	52256.5234375	64927.30859375	59489.2265625	68184.546875	69212.1640625	59787.109375	47261.05078125	53028.9765625	66686.6875	55138.4375	65208.58984375	55762.76953125	42792.5390625	64395.8828125	54598.5078125	51083.5859375	57270.484375	67805.46875	56633.45703125	55552.609375	54858.46875	45821.90625	17182.521484375	52129.43359375	96356.109375	54765.89453125	50429.6640625	67272.4375	47587.87109375	80313.2109375	64482.9609375	34686.5625	62984.6171875	61273.125	46361.6875	74078.2890625	55669.6015625	68422.1484375	59253.83203125	60306.94140625	42096.76953125	46995.88671875	58909.921875	51708.1484375	63250.3203125	61880.4140625	36598.421875	67195.296875	46034.66796875	49480.82421875	70087.8671875	58882.8828125	53514.60546875	57882.61328125	51710.7890625	46549.859375	22368.810546875	40366.12109375	91351.921875	52939.81640625
360	480	20464.244140625	25827.939453125	41836.26171875	40880.4140625	42790.10546875	56234.0859375	37691.96484375	36794.0078125	30069.34765625	43369.03125	460.27655029296875	51946.28125	39655.72265625	49147.515625	21170.41796875	27095.2421875	42133.7578125	41028.69921875	41369.44140625	53065.8671875	36637.13671875	31949.982421875	40241.8046875	58488.20703125	41513.109375	7642.564453125	5606.80419921875	8069.89599609375	37847.15234375	33122.51171875	4451.26025390625	7731.3388671875	50347.82421875	57644.3359375	52075.671875	70393.1875	53822.53515625	39645.13671875	51772.7890625	53299.41796875	45069.4453125	56189.93359375	50815.3671875	56059.0078125	59662.5625	51665.5859375	46115.9921875	44911.39453125	56625.171875	44991.515625	55229.96875	51335.765625	39099.10546875	53437.71875	47944.7109375	45620.15234375	48688.24609375	58558.734375	50195.01171875	48050.91796875	49020.52734375	41451.23828125	22945.912109375	48271.66796875	76580.5546875	46729.65234375	44382.01171875	55081.69140625	41971.51171875	68422.7734375	55216.2578125	34532.59765625	54927.83984375	54146.21875	43126.4921875	65043.74609375	49274.24609375	57264.78125	53594.609375	52858.16015625	36583.11328125	40970.08203125	49562.0078125	44511.52734375	53847.140625	54215.03515625	35305.56640625	56378.39453125	41846.34765625	45454.109375	58869.87890625	52933.12109375	48115.0625	51352.43359375	45535.22265625	43579.09375	25704.640625	39334.203125	80222.84375	47190.65625
480	600	18201.728515625	23030.14453125	35319.984375	37180.36328125	38363.9609375	47453.44140625	30975.046875	30839.7578125	26833.658203125	39165.95703125	-63.91190719604492	57994.35546875	36716.3359375	33708.984375	18679.802734375	23696.70703125	35399.625	36089.0078125	37420.89453125	43376.26171875	32907.27734375	27212.7265625	38713.76171875	47876.78515625	39012.8828125	10684.0830078125	3870.01806640625	7548.8408203125	32377.87890625	30604.455078125	2503.9794921875	7760.61865234375	39435.703125	44273.78125	45144.0390625	53845.953125	47107.62109375	35961.91796875	42396.7421875	46355.3125	37417.62890625	45505.87890625	41946.92578125	43199.7265625	47621.71875	42105.3125	37701.09765625	38655.22265625	43529.8671875	38809.19140625	45725.0546875	43143.359375	35598.24609375	43021.74609375	39155.3203125	38217.640625	36628.00390625	49495.91015625	43079.72265625	40248.74609375	41161.6484375	35497.76953125	27817.822265625	41730.9375	58297.6953125	38739.29296875	35624.546875	43831.59765625	37725.12890625	54172.734375	45318.375	32924.88671875	46406.48828125	45072.3125	38067.74609375	51810.390625	41232.2265625	43920.13671875	43917.10546875	43322.8515625	33333.0	36434.17578125	38861.15625	40009.42578125	46170.5390625	46026.484375	31708.087890625	45620.97265625	36128.4765625	39063.36328125	45547.578125	45036.92578125	41155.5859375	43303.51953125	38210.73046875	37207.4140625	31054.67578125	34574.76171875	56719.2109375	39699.73828125
600	900	16498.7734375	20907.1640625	26279.9765625	31265.33984375	32288.53125	35960.6875	28927.1875	24681.072265625	21571.904296875	32927.83203125	-1048.3870849609375	37815.265625	31824.134765625	19793.142578125	16428.078125	20988.44140625	26764.875	31142.021484375	30477.630859375	33329.34765625	27946.75390625	22410.412109375	33245.95703125	36189.22265625	31279.376953125	7515.59716796875	2267.258544921875	7212.5458984375	26378.50390625	26797.380859375	878.677978515625	7805.70654296875	29728.212890625	32563.75390625	34053.9140625	37001.5234375	39063.6015625	29960.5234375	31291.380859375	35567.296875	28558.333984375	32551.921875	32753.021484375	30145.638671875	34743.48828125	30674.57421875	31878.0390625	30706.81640625	31031.76171875	32317.80078125	34457.90234375	29692.78515625	28604.0234375	29602.2578125	30983.1171875	29834.8984375	28769.40234375	38051.51953125	33499.515625	31039.861328125	31194.021484375	27966.41796875	37353.0390625	36793.32421875	34690.2421875	29926.77734375	28257.791015625	30413.80078125	29458.18359375	37238.76171875	33276.234375	27218.83984375	34801.421875	35365.859375	30558.990234375	38020.46875	31349.91796875	32178.251953125	32406.732421875	31984.625	24252.943359375	29589.30859375	29476.392578125	31939.4140625	34888.62109375	33173.3515625	28039.095703125	31240.001953125	28989.45703125	29980.35546875	31793.0390625	35869.6328125	32393.75	33950.609375	30451.015625	29756.466796875	34338.0390625	29638.08984375	33868.8203125	29952.58203125
900	1200	15859.146484375	19196.509765625	19585.5	26408.015625	24509.603515625	25774.564453125	26323.5390625	19539.244140625	17983.095703125	26431.5234375	-610.7166137695312	26062.380859375	25359.9453125	13018.576171875	15650.4921875	20186.83984375	20024.658203125	25087.716796875	22489.439453125	24624.716796875	26001.228515625	18803.109375	25088.67578125	25384.724609375	25326.171875	11381.5888671875	1586.8087158203125	7326.21533203125	19095.083984375	23304.275390625	1359.045654296875	7930.2119140625	21202.189453125	22342.349609375	24767.1015625	23941.650390625	26968.05859375	21915.142578125	22565.44140625	25285.6640625	21202.755859375	22218.529296875	23021.24609375	20930.35546875	24694.20703125	21289.59765625	23996.486328125	20917.923828125	22067.76953125	20989.361328125	24952.302734375	18133.205078125	21541.845703125	20475.42578125	22297.990234375	21255.892578125	21542.181640625	28267.666015625	24406.5	23387.1171875	22850.107421875	20260.5234375	29294.716796875	28493.0546875	20967.244140625	22189.93359375	20462.634765625	21847.50390625	21119.412109375	25643.00390625	23446.091796875	20697.3515625	25557.052734375	25139.1796875	21071.404296875	26196.33203125	21946.9765625	23230.974609375	22757.8984375	22789.951171875	19412.900390625	21720.20703125	21511.34375	22316.037109375	24973.685546875	23354.6796875	20627.26953125	21149.125	21307.685546875	22813.775390625	23676.466796875	27040.236328125	24108.630859375	25224.7109375	22960.546875	21695.150390625	30297.11328125	23364.28515625	19810.921875	21625.595703125
1200	1500	15599.4970703125	19025.427734375	15480.650390625	22698.607421875	21616.080078125	20833.439453125	23244.984375	16227.6796875	14558.5	21648.740234375	-1387.831787109375	15638.5498046875	22259.408203125	15508.43359375	15549.025390625	19430.2734375	15951.6103515625	21023.134765625	18237.341796875	19430.775390625	25183.802734375	15421.8828125	20488.27734375	18668.9375	21262.08984375	12683.1748046875	1365.2591552734375	7582.52197265625	16065.1943359375	21437.744140625	1992.2237548828125	8036.7529296875	16369.9453125	17614.943359375	20538.294921875	19216.671875	20799.48828125	17308.326171875	18052.16015625	19364.474609375	16351.3046875	17183.880859375	18439.134765625	16698.884765625	19215.4609375	16513.99609375	19219.673828125	16836.775390625	17223.443359375	17007.755859375	18778.583984375	13261.6806640625	16797.82421875	17303.9453125	17664.84765625	17531.892578125	18920.482421875	22148.00390625	20363.111328125	18807.0703125	17972.734375	16307.51171875	24005.861328125	23961.2421875	16081.8427734375	16846.396484375	15354.8154296875	17842.35546875	18082.36328125	20703.720703125	18236.24609375	15596.0732421875	20389.142578125	19267.189453125	16621.978515625	20182.0390625	17725.763671875	18123.072265625	16847.6953125	17823.986328125	14128.28125	15891.8115234375	17675.642578125	17441.83203125	19514.17578125	15829.482421875	17088.8359375	16181.013671875	16563.1640625	17595.9453125	16882.931640625	21859.41796875	18933.201171875	20050.966796875	18238.6484375	16885.95703125	23097.93359375	19688.1953125	16824.9921875	17546.39453125
1500	1800	15225.7822265625	17485.794921875	12930.12890625	18925.091796875	16965.169921875	16022.3173828125	22105.931640625	13855.73828125	12241.0966796875	18811.123046875	-812.9287719726562	7779.8798828125	19651.689453125	9794.685546875	15098.4814453125	18299.048828125	13203.83203125	17993.298828125	15264.03515625	15583.412109375	21827.548828125	12564.546875	15730.3095703125	10948.634765625	18380.681640625	9858.177734375	1371.9947509765625	7506.49755859375	13492.6455078125	19226.91796875	2334.318115234375	8168.88134765625	13211.5673828125	16254.5869140625	17074.51953125	15349.7451171875	17810.267578125	13490.2666015625	14744.755859375	14806.9619140625	12092.3251953125	13013.6005859375	14837.66015625	12554.1982421875	15508.7666015625	13074.0732421875	14948.9736328125	12170.8330078125	13757.4873046875	13721.310546875	16071.337890625	8551.4833984375	12597.990234375	13326.4970703125	14658.1611328125	14191.08984375	16244.5859375	18095.73046875	16551.8125	15147.6826171875	14937.578125	13084.5791015625	23301.3828125	19502.5859375	13087.076171875	14016.67578125	12632.4521484375	14086.5068359375	14570.697265625	16887.580078125	13638.068359375	11578.775390625	16420.169921875	15267.4658203125	14122.388671875	16044.07421875	14080.55078125	14061.2763671875	14093.76171875	14147.2275390625	10730.615234375	12341.6640625	13577.744140625	13979.0068359375	16067.34375	13167.9892578125	13339.9697265625	13309.328125	13727.0302734375	14026.2333984375	14086.1123046875	18379.828125	15275.0849609375	16854.337890625	14783.6591796875	13760.376953125	20957.115234375	16522.509765625	15223.6181640625	14112.08203125
1800	2100	14552.30859375	16748.921875	10348.5556640625	16238.466796875	13826.7431640625	12947.59765625	20774.517578125	12021.2255859375	11224.349609375	15315.2890625	-294.3536376953125	7620.14990234375	16293.244140625	9121.9873046875	14432.43359375	16860.220703125	11113.2587890625	15137.552734375	11265.833984375	13054.001953125	20264.57421875	11395.4970703125	12563.3115234375	7913.3994140625	15747.1962890625	2791.09130859375	1065.13232421875	7855.06298828125	11146.77734375	16943.392578125	2399.3916015625	8250.63671875	10629.333984375	14541.7900390625	14167.0859375	11407.1416015625	13431.4677734375	11414.646484375	12120.294921875	11733.435546875	10503.1923828125	10091.78125	12250.4833984375	9686.5380859375	12649.66015625	10675.1572265625	11894.265625	9523.1826171875	11520.2509765625	10285.201171875	12225.953125	7233.50341796875	10274.513671875	11768.3896484375	11854.1513671875	11296.853515625	12926.7060546875	15201.7939453125	13863.1728515625	12606.376953125	12529.1982421875	10376.4794921875	18353.314453125	16620.158203125	13283.4423828125	10040.1875	11496.61328125	11392.0732421875	12972.1884765625	13586.525390625	10720.056640625	9421.9638671875	13454.5107421875	11647.0927734375	10225.09375	12325.7685546875	11494.04296875	11458.3583984375	11000.4638671875	11350.91796875	8918.56640625	7090.7919921875	10900.71484375	10820.6962890625	13451.9716796875	10419.2001953125	10343.5283203125	11812.677734375	11695.2939453125	11476.654296875	12273.4609375	15817.1201171875	12342.875	13728.421875	12338.9345703125	11489.427734375	16732.931640625	13228.857421875	14604.4345703125	11025.771484375
2100	2400	13939.8359375	15085.103515625	8787.8857421875	13501.6787109375	12340.861328125	10541.5869140625	18059.0390625	10302.404296875	9152.453125	12996.357421875	-245.15972900390625	904.361083984375	14353.3115234375	3490.4697265625	13686.724609375	15982.150390625	9209.1455078125	12476.9052734375	9658.6689453125	9998.30078125	18574.474609375	9358.20703125	10327.896484375	4023.009033203125	14168.1220703125	6772.59130859375	1039.1226806640625	7849.453125	8731.6669921875	14165.5107421875	2727.39453125	8222.0166015625	7896.6826171875	13121.1650390625	11061.876953125	9834.5634765625	9981.5517578125	8491.58203125	9807.4482421875	8788.8505859375	8722.8447265625	7888.9267578125	9026.8623046875	8124.92578125	9916.4033203125	8494.181640625	8242.7685546875	8035.5	8882.3056640625	9619.7861328125	9078.498046875	5023.8359375	7246.1484375	9165.986328125	9945.1591796875	9456.115234375	11349.2490234375	12510.482421875	11554.0908203125	10227.9931640625	10277.2138671875	8678.5888671875	14483.5244140625	14727.1376953125	11691.05859375	8508.8837890625	10013.15625	9389.3134765625	11066.1396484375	11212.841796875	8702.5185546875	6809.6494140625	11126.765625	8997.3310546875	6529.7919921875	10236.2275390625	9272.4541015625	9303.6748046875	8733.076171875	9632.634765625	7152.40576171875	5137.27685546875	9659.30859375	9900.3544921875	10416.41796875	7177.5087890625	7862.3740234375	10408.6064453125	9293.181640625	9246.9658203125	10912.8720703125	13210.689453125	9782.177734375	11151.177734375	9753.857421875	9456.908203125	11433.7080078125	11356.349609375	12557.3203125	9232.00390625
2400	2700	13309.1923828125	13757.234375	7764.81103515625	11953.8662109375	10736.896484375	8877.2607421875	15480.1630859375	8917.908203125	9389.73828125	10253.09375	-226.66415405273438	749.20361328125	12720.4794921875	-126.32009887695312	13115.97265625	14629.4970703125	8002.09228515625	10404.5517578125	7125.2861328125	8804.0849609375	16870.537109375	7566.40771484375	8214.9404296875	3085.99951171875	11999.0546875	6166.43359375	1074.78466796875	7580.779296875	7450.4814453125	13793.4873046875	3056.458251953125	8230.8447265625	6227.96630859375	11347.5703125	9709.5322265625	8081.19091796875	9133.4228515625	6088.51220703125	8472.607421875	6735.7822265625	7318.9794921875	6336.861328125	7405.99072265625	6172.56689453125	8306.0224609375	7129.150390625	6073.14306640625	4878.04638671875	7558.8125	8664.689453125	6552.814453125	4773.65625	5388.76025390625	9188.2490234375	8288.103515625	7557.18359375	10513.302734375	10579.033203125	9627.8046875	8899.7392578125	8697.048828125	7363.38818359375	12601.1572265625	12840.607421875	10830.9462890625	6850.2314453125	8847.0234375	9145.458984375	9332.5986328125	9097.7421875	8266.998046875	5092.2041015625	9379.60546875	7366.6025390625	4638.443359375	8033.35107421875	6860.796875	7424.2666015625	6108.49267578125	7924.81396484375	5715.10302734375	3995.3583984375	7650.76025390625	7087.10595703125	8216.341796875	5838.24658203125	5179.05029296875	8950.7626953125	7936.43359375	7587.23095703125	9617.2216796875	11061.0107421875	7899.55078125	8919.2236328125	7766.34814453125	7889.98779296875	10203.7587890625	9054.4775390625	12454.1181640625	7461.46240234375
