frame_start	frame_end	Left-Cerebral-White-Matter	Left-Cerebellum-White-Matter	Left-Cerebellum-Cortex	Left-Thalamus	Left-Caudate	Left-Putamen	Left-Pallidum	Brain-Stem	Left-Hippocampus	Left-Amygdala	CSF	Left-Accumbens-area	Left-VentralDC	Left-choroid-plexus	Right-Cerebral-White-Matter	Right-Cerebellum-White-Matter	Right-Cerebellum-Cortex	Right-Thalamus	Right-Caudate	Right-Putamen	Right-Pallidum	Right-Hippocampus	Right-Amygdala	Right-Accumbens-area	Right-VentralDC	Right-choroid-plexus	AirCavity	Skull	Vermis	Pons	CSF-ExtraCerebral	Head-ExtraCerebral	ctx-lh-bankssts	ctx-lh-caudalanteriorcingulate	ctx-lh-caudalmiddlefrontal	ctx-lh-cuneus	ctx-lh-entorhinal	ctx-lh-fusiform	ctx-lh-inferiorparietal	ctx-lh-inferiortemporal	ctx-lh-isthmuscingulate	ctx-lh-lateraloccipital	ctx-lh-lateralorbitofrontal	ctx-lh-lingual	ctx-lh-medialorbitofrontal	ctx-lh-middletemporal	ctx-lh-parahippocampal	ctx-lh-paracentral	ctx-lh-parsopercularis	ctx-lh-parsorbitalis	ctx-lh-parstriangularis	ctx-lh-pericalcarine	ctx-lh-postcentral	ctx-lh-posteriorcingulate	ctx-lh-precentral	ctx-lh-precuneus	ctx-lh-rostralanteriorcingulate	ctx-lh-rostralmiddlefrontal	ctx-lh-superiorfrontal	ctx-lh-superiorparietal	ctx-lh-superiortemporal	ctx-lh-supramarginal	ctx-lh-frontalpole	ctx-lh-temporalpole	ctx-lh-transversetemporal	ctx-lh-insula	ctx-rh-bankssts	ctx-rh-caudalanteriorcingulate	ctx-rh-caudalmiddlefrontal	ctx-rh-cuneus	ctx-rh-entorhinal	ctx-rh-fusiform	ctx-rh-inferiorparietal	ctx-rh-inferiortemporal	ctx-rh-isthmuscingulate	ctx-rh-lateraloccipital	ctx-rh-lateralorbitofrontal	ctx-rh-lingual	ctx-rh-medialorbitofrontal	ctx-rh-middletemporal	ctx-rh-parahippocampal	ctx-rh-paracentral	ctx-rh-parsopercularis	ctx-rh-parsorbitalis	ctx-rh-parstriangularis	ctx-rh-pericalcarine	ctx-rh-postcentral	ctx-rh-posteriorcingulate	ctx-rh-precentral	ctx-rh-precuneus	ctx-rh-rostralanteriorcingulate	ctx-rh-rostralmiddlefrontal	ctx-rh-superiorfrontal	ctx-rh-superiorparietal	ctx-rh-superiortemporal	ctx-rh-supramarginal	ctx-rh-frontalpole	ctx-rh-temporalpole	ctx-rh-transversetemporal	ctx-rh-insula
0	30	3.213660955429077	0.8072668313980103	1.4470969438552856	0.19712166488170624	0.2349856048822403	1.4040746688842773	2.9498486518859863	2.5363733768463135	1.7210038900375366	0.7404462099075317	6.302143573760986	0.023740315809845924	5.700047969818115	0.03193105012178421	3.241746425628662	4.166079998016357	0.845069944858551	3.6569111347198486	6.127976894378662	19.413393020629883	11.247879028320312	0.01711813546717167	0.17995697259902954	0.3053820729255676	6.15543270111084	7.9694743156433105	1.586534857749939	3.3827147483825684	0.166731059551239	0.2906363904476166	3.3372960090637207	2.6984405517578125	3.3021914958953857	0.08224943280220032	2.480785608291626	0.45999380946159363	1.929372787475586	0.911206066608429	1.8035356998443604	7.798383712768555	3.435900926589966	1.359201431274414	1.1168795824050903	1.406847357749939	1.2531979084014893	10.827404975891113	3.371677875518799	5.135312080383301	3.063518524169922	0.18047164380550385	0.23498335480690002	3.869014024734497	4.554998397827148	0.3571559488773346	6.2627716064453125	2.0692410469055176	1.1514564752578735	1.7902520895004272	3.335930585861206	2.620622396469116	6.529597282409668	1.2353559732437134	0.017107665538787842	5.934595108032227	0.47124508023262024	2.0817360877990723	0.3095240890979767	0.22486081719398499	3.6096627712249756	0.8588536977767944	0.24170933663845062	4.702814102172852	1.5250189304351807	1.4713948965072632	0.3150066137313843	1.0060631036758423	3.098268508911133	1.0632743835449219	1.9636459350585938	5.074339389801025	0.1607486456632614	7.307009696960449	2.065044641494751	2.091601848602295	24.428646087646484	3.1235790252685547	2.6151552200317383	2.6711983680725098	2.500480890274048	6.881109237670898	0.49303847551345825	5.443774700164795	5.174122333526611	1.5048043727874756	2.710991144180298	1.1142884492874146	0.4199686050415039	13.052660942077637	2.4042916297912598	2.3516082763671875
30	60	534.1378784179688	528.6143798828125	631.7289428710938	608.438232421875	519.5703125	1030.18896484375	473.85357666015625	619.2189331054688	797.18408203125	914.4290161132812	421.3059387207031	796.1968383789062	707.2053833007812	362.12896728515625	544.2481689453125	451.7811584472656	677.9892578125	678.5596923828125	468.01763916015625	775.1006469726562	525.5831298828125	679.6958618164062	561.6982421875	860.189697265625	572.0223999023438	410.1447448730469	284.9356994628906	363.0694885253906	557.0306396484375	607.964599609375	814.3682861328125	184.12991333007812	851.239990234375	908.5633544921875	793.3875732421875	866.430419921875	437.2562255859375	643.915283203125	738.14453125	620.4764404296875	696.9197998046875	620.3307495117188	780.9253540039062	847.7898559570312	984.3001098632812	611.50439453125	602.9841918945312	909.2723999023438	949.4896850585938	798.5458984375	795.8455200195312	785.7633666992188	719.4771728515625	814.4583129882812	693.2005004882812	809.3593139648438	1199.00927734375	819.9791259765625	907.6157836914062	613.253173828125	761.1646118164062	916.3578491210938	834.535400390625	724.9281005859375	1069.40087890625	1055.251953125	751.8984985351562	926.1637573242188	850.0879516601562	922.322021484375	484.37225341796875	700.3076171875	711.867431640625	585.8876342773438	796.8560180664062	607.9788208007812	684.9673461914062	741.0437622070312	752.2861328125	593.8682861328125	939.8666381835938	850.6799926757812	891.8497314453125	748.7221069335938	855.56689453125	854.1716918945312	786.3870849609375	903.00341796875	781.764892578125	940.177001953125	985.9689331054688	810.9718627929688	859.5301513671875	730.7897338867188	851.585693359375	797.1132202148438	891.3284301757812	337.754150390625	1131.228759765625	959.5789184570312
60	90	5252.51708984375	5425.39208984375	7003.69189453125	7490.11962890625	6522.98095703125	8433.154296875	5038.65576171875	6315.578125	6505.439453125	6345.63525390625	5085.42578125	7238.525390625	6551.8818359375	4977.33740234375	5214.50439453125	4903.80419921875	6863.34130859375	7466.90673828125	7007.35498046875	7918.3876953125	6072.8740234375	6609.810546875	5859.2451171875	8291.73828125	6055.02880859375	5923.279296875	2176.749267578125	2448.912353515625	6755.23046875	5578.86279296875	6781.2900390625	1337.431884765625	7213.18212890625	7198.29345703125	8127.23486328125	9488.4140625	4979.869140625	7255.73583984375	6795.92822265625	6203.47021484375	7266.353515625	6973.52978515625	6820.5302734375	8168.27099609375	7093.54248046875	5965.22802734375	5692.05029296875	7763.2021484375	7954.33056640625	6093.6435546875	7452.32763671875	9314.1953125	7000.087890625	7342.8271484375	6911.72119140625	7715.0146484375	8146.4228515625	7253.9296875	7588.0771484375	6568.583984375	6561.5634765625	7060.95751953125	6496.45849609375	4718.970703125	7845.26318359375	7652.3212890625	7893.41455078125	6733.0224609375	7991.83984375	9510.9619140625	4608.451171875	6922.791015625	6648.9599609375	6269.3466796875	7723.50732421875	6784.09716796875	7235.2119140625	7804.6630859375	6625.59326171875	6486.57470703125	6120.376953125	7537.19384765625	8284.916015625	7116.92041015625	8084.31103515625	8793.4091796875	7019.00439453125	7830.20068359375	7016.34521484375	8443.1064453125	7659.54931640625	7182.376953125	7693.49853515625	6681.74853515625	7248.47998046875	7383.51416015625	7380.51220703125	3534.71923828125	9111.3193359375	7321.59765625
90	120	8952.712890625	9402.92578125	11653.8720703125	12555.83984375	12001.982421875	13308.6650390625	8520.8388671875	10052.7548828125	10030.0419921875	7750.0107421875	8580.9365234375	11801.6904296875	10202.1162109375	9759.962890625	8994.34765625	8794.23046875	12203.255859375	12473.1728515625	13135.5361328125	13939.1513671875	8982.5703125	10260.7685546875	7951.22216796875	11039.154296875	10153.5654296875	9784.2373046875	3707.77001953125	3804.56982421875	13041.826171875	8901.087890625	10876.40625	2178.623291015625	12481.2265625	11969.6669921875	13073.759765625	14594.4521484375	7679.0654296875	11548.8955078125	11992.5712890625	11037.7607421875	11601.9248046875	11175.21875	12073.56640625	13263.9794921875	12559.1474609375	10404.494140625	9643.9287109375	13022.21484375	13472.455078125	10472.013671875	11805.978515625	14912.6181640625	12180.484375	13294.544921875	12063.333984375	13491.4619140625	12586.01953125	12486.9443359375	12843.4462890625	11273.333984375	11194.3291015625	12166.744140625	11091.3623046875	8374.8740234375	14152.4462890625	12606.9521484375	11847.9541015625	11735.6708984375	13010.513671875	15724.5302734375	9397.673828125	11724.140625	11520.33203125	10861.109375	11594.37109375	11433.193359375	11964.8662109375	13017.6904296875	11937.8056640625	11330.1669921875	10033.302734375	12865.625	13857.322265625	10448.85546875	13391.8173828125	15022.53125	12223.12109375	13474.2705078125	12144.732421875	13446.048828125	13582.1884765625	12444.3525390625	12708.50390625	11878.7939453125	11651.4736328125	12135.1552734375	12093.376953125	7307.23876953125	14225.9375	12385.23828125
120	150	12515.169921875	13079.6953125	16809.083984375	18810.595703125	17542.666015625	18325.986328125	12231.44921875	14214.7919921875	13828.30078125	11852.9541015625	11758.212890625	17117.62890625	13338.8076171875	14884.458984375	12526.734375	12258.3974609375	16878.904296875	17820.939453125	16848.27734375	20684.828125	13935.6357421875	14255.60546875	12339.921875	18371.1328125	13705.4638671875	12950.013671875	4684.80419921875	5014.56591796875	17277.8359375	14035.7099609375	14790.7880859375	2918.6650390625	16489.63671875	15984.388671875	18149.875	19681.916015625	11154.6181640625	15581.2978515625	16189.7490234375	15577.875	15387.177734375	15206.8740234375	16683.150390625	18048.064453125	16996.64453125	14516.1376953125	13782.1962890625	18534.90625	18275.81640625	13986.7578125	16322.0927734375	20714.978515625	16419.80078125	17511.947265625	16375.533203125	18589.373046875	17361.654296875	17154.2578125	17621.994140625	16117.2861328125	15424.4775390625	16822.794921875	14171.580078125	11555.98046875	18402.5078125	17726.669921875	17343.078125	15349.8427734375	18265.943359375	20900.14453125	11667.26953125	15661.341796875	16301.365234375	15734.76171875	16881.98828125	15982.9677734375	16881.951171875	17696.66796875	15875.421875	15875.2802734375	12857.6904296875	18060.52734375	19028.421875	14956.01171875	17949.451171875	21271.40234375	16837.537109375	18242.1015625	16887.3828125	19440.80078125	17890.83203125	17212.935546875	18191.611328125	16237.9228515625	15940.1142578125	17514.673828125	16739.421875	10225.0595703125	19116.041015625	17588.873046875
150	180	14985.748046875	15441.8486328125	20053.78515625	21150.083984375	20372.5625	22923.6015625	15428.7802734375	16257.1845703125	16291.81640625	16633.763671875	13762.16796875	17958.806640625	16419.89453125	17676.927734375	14864.244140625	14331.041015625	19980.154296875	20807.892578125	19708.982421875	23904.154296875	15457.888671875	16371.9794921875	12785.2626953125	21018.619140625	16641.744140625	16065.794921875	5653.984375	5836.7734375	21245.875	15176.412109375	17379.40234375	3302.944091796875	19816.232421875	19101.28515625	21899.033203125	23528.8671875	13828.5087890625	18775.330078125	19723.03515625	18528.548828125	17988.87109375	18305.072265625	19630.140625	21258.1015625	20612.021484375	17506.849609375	16467.42578125	21676.4453125	22171.646484375	16572.47265625	19523.876953125	24081.380859375	19600.142578125	19983.6953125	19649.134765625	22144.087890625	21186.27734375	20676.583984375	20802.005859375	19691.8515625	18578.96875	20176.48046875	18643.751953125	13514.2314453125	21626.408203125	20084.62109375	19920.517578125	17787.251953125	22334.34375	24567.119140625	14173.25	19165.11328125	19166.611328125	18562.115234375	19024.79296875	18941.3671875	19777.294921875	21183.939453125	18527.5078125	18058.138671875	14668.0703125	20945.498046875	22534.68359375	17904.52734375	21365.62890625	24689.3984375	19972.193359375	21167.630859375	20182.298828125	22376.64453125	21191.236328125	20645.287109375	21505.7109375	19057.326171875	19040.51171875	20862.375	19051.236328125	12585.7275390625	21111.35546875	20642.6640625
180	240	18045.970703125	18736.6015625	24252.404296875	26768.599609375	24929.634765625	28931.31640625	19438.5	19920.783203125	19753.94921875	18486.568359375	16574.693359375	24234.833984375	20302.3984375	20585.427734375	18043.474609375	18059.53515625	24150.169921875	25487.4296875	24341.748046875	29819.544921875	20926.248046875	19750.9375	18122.087890625	26082.98828125	19729.859375	20191.5234375	6589.80029296875	6858.91845703125	23921.892578125	18444.576171875	20541.392578125	3946.752685546875	23152.873046875	22353.357421875	25836.3203125	27068.544921875	16586.21484375	22837.0078125	23831.056640625	22884.09765625	21735.40625	21669.759765625	23699.486328125	25767.138671875	24237.912109375	21268.541015625	19678.009765625	25169.671875	26069.58203125	20485.892578125	23718.208984375	28529.22265625	23845.490234375	24798.6171875	24124.44140625	26511.82421875	24775.146484375	24786.98828125	24924.46875	22938.099609375	22083.56640625	23808.86328125	20956.8828125	17042.919921875	25951.3515625	24989.28125	25051.705078125	22337.310546875	26871.962890625	29013.263671875	16739.021484375	23318.984375	23540.9375	22270.54296875	22690.814453125	22914.58984375	23956.572265625	25324.6171875	22975.8828125	22729.818359375	19428.03515625	25261.4453125	27371.306640625	21283.5625	25836.37109375	28748.529296875	24461.65625	26061.763671875	23917.134765625	27142.46875	25751.041015625	24890.3125	25702.16015625	23498.13671875	22902.916015625	24619.9609375	22366.51171875	14673.4775390625	25620.5390625	24538.96875
240	300	20674.455078125	21660.4609375	27459.29296875	29740.08984375	28038.947265625	32601.330078125	21986.353515625	23118.630859375	22089.84765625	21887.654296875	18461.982421875	29939.638671875	22683.859375	22175.767578125	20700.49609375	21075.1484375	27471.54296875	30385.400390625	27881.9765625	33262.6015625	23074.890625	22083.41015625	19102.033203125	30989.013671875	22131.3203125	22976.427734375	7309.61181640625	7694.017578125	28753.19140625	22267.970703125	23015.078125	4540.38330078125	27603.74609375	25535.021484375	29148.720703125	30550.359375	19429.087890625	25775.509765625	26535.458984375	26416.244140625	24025.328125	24651.58984375	26035.111328125	28348.244140625	27924.458984375	24182.861328125	22649.4609375	27833.18359375	29079.013671875	22028.7421875	26684.529296875	31958.462890625	27112.93359375	28294.296875	27357.208984375	29945.26171875	27969.892578125	27675.53125	28349.216796875	26489.5078125	25582.25390625	27312.3515625	22943.3515625	18907.427734375	29737.83203125	28629.97265625	28000.34765625	24267.947265625	30501.240234375	32164.431640625	19887.44140625	26192.93359375	26755.9921875	25590.873046875	25024.48828125	25900.15625	26697.111328125	28260.5078125	25815.72265625	25613.7890625	21551.87109375	29107.681640625	30301.623046875	23721.849609375	28857.076171875	31365.61328125	26965.48046875	28834.56640625	27088.84765625	30378.486328125	28653.423828125	28402.775390625	28974.8203125	26337.072265625	26071.7421875	27904.021484375	26357.54296875	17334.490234375	30244.345703125	28080.7578125
300	360	21602.763671875	22527.806640625	28768.224609375	32045.533203125	29166.96484375	34840.39453125	23814.697265625	23670.08984375	22482.693359375	20315.263671875	18889.47265625	30387.255859375	23410.384765625	24081.044921875	21584.46484375	21297.099609375	28161.169921875	31818.736328125	28876.58203125	34467.5078125	25653.900390625	23339.861328125	22933.9453125	30607.779296875	23217.423828125	24183.0546875	7766.99365234375	8037.06201171875	28477.3359375	20961.61328125	23544.86328125	4848.9794921875	28330.888671875	27098.4609375	30067.626953125	30746.474609375	21047.689453125	26410.2578125	27906.640625	26875.904296875	24928.23046875	25506.03125	27314.435546875	29387.169921875	28577.0625	25057.89453125	23709.689453125	29133.013671875	30160.515625	22868.271484375	27797.07421875	32816.9375	28129.400390625	28292.4609375	28240.966796875	30773.4765625	28768.23828125	28612.322265625	28861.673828125	27231.41015625	26635.779296875	27673.009765625	23304.19921875	20693.1953125	29460.638671875	29225.623046875	29641.26171875	25956.779296875	31110.966796875	32396.5234375	22128.603515625	26909.3359375	27514.51953125	25840.181640625	25052.83203125	26547.044921875	27635.396484375	28845.96875	27588.228515625	26239.89453125	22612.328125	29376.541015625	30387.01171875	24880.845703125	29493.048828125	32043.716796875	27953.517578125	30019.306640625	28073.923828125	31398.84765625	29612.1796875	29052.1953125	29937.583984375	27652.197265625	27044.5546875	28771.767578125	26015.04296875	17588.5859375	29633.556640625	28695.486328125
360	480	21984.625	22868.1875	28272.96484375	32572.490234375	28731.66015625	34175.765625	24646.501953125	23778.9296875	23153.146484375	22120.251953125	18832.62109375	31050.755859375	24321.3359375	22685.544921875	22018.37109375	22173.671875	27937.80078125	32239.267578125	29159.361328125	34817.25390625	25077.6796875	24418.5078125	19431.154296875	32772.4375	24168.61328125	22951.462890625	7662.30224609375	8246.564453125	27716.673828125	21919.2109375	23216.263671875	5203.439453125	27854.44140625	27004.966796875	30056.33203125	30172.693359375	22090.779296875	26737.78125	27707.40234375	26964.80078125	24868.224609375	24846.7734375	27491.015625	28529.021484375	28343.095703125	25372.294921875	23218.3203125	30163.771484375	29714.533203125	23355.064453125	27598.55859375	31721.970703125	27948.2578125	28516.3984375	27903.6171875	30623.138671875	29478.435546875	28372.4296875	28908.943359375	27274.978515625	26323.05078125	27732.916015625	23972.18359375	20969.533203125	29804.619140625	29154.681640625	29267.994140625	25979.62109375	30954.71875	32317.181640625	22956.92578125	26980.24609375	27686.876953125	26568.755859375	24914.001953125	26104.115234375	27970.505859375	28117.494140625	27023.93359375	26896.95703125	23079.904296875	30010.802734375	30562.0859375	25210.607421875	29441.962890625	30564.421875	28141.162109375	29040.599609375	28367.666015625	30578.236328125	29941.416015625	28864.2734375	29895.93359375	27441.623046875	26879.01953125	28448.962890625	25713.470703125	19114.208984375	29434.421875	28674.31640625
480	600	21072.197265625	21911.859375	26614.693359375	31081.81640625	27250.228515625	32881.8515625	23870.40234375	23455.859375	20598.72265625	22263.947265625	17903.193359375	29508.259765625	23108.236328125	21309.119140625	21051.224609375	21511.55078125	26094.6171875	31220.3984375	27280.615234375	32522.1875	25423.359375	22569.2109375	20448.53125	30383.630859375	23680.619140625	23118.88671875	7562.57763671875	8151.76025390625	26738.9921875	21560.08203125	21473.3359375	5447.83203125	25805.27734375	24793.435546875	27207.54296875	27304.275390625	20166.095703125	25537.025390625	25979.916015625	25344.544921875	23091.49609375	22952.82421875	25330.05859375	26150.736328125	27113.912109375	23989.88671875	22566.87890625	27003.095703125	27589.4296875	21730.927734375	25193.896484375	28308.787109375	25890.595703125	26089.490234375	25993.1875	27860.826171875	27202.81640625	25748.98046875	26638.921875	25185.744140625	25072.45703125	25723.5078125	22061.333984375	20656.01171875	27141.599609375	27328.24609375	27829.84765625	24956.2578125	28141.94140625	29081.416015625	22655.466796875	25269.326171875	25435.1875	24626.1484375	23139.21484375	24146.388671875	26201.798828125	25474.818359375	25916.1171875	24988.259765625	22339.091796875	27426.205078125	28012.984375	23128.423828125	26987.828125	27492.107421875	25606.330078125	26598.15234375	26114.556640625	27644.34375	27941.04296875	26571.546875	27675.595703125	25157.55078125	24955.841796875	25923.390625	24349.412109375	20074.955078125	26440.732421875	27389.146484375
600	900	18617.1796875	19764.140625	22073.837890625	27256.6796875	21630.955078125	27405.7265625	22453.646484375	20846.515625	19013.9375	20014.341796875	15153.9921875	24085.46875	21541.552734375	18205.39453125	18625.69921875	19396.384765625	21737.56640625	26993.09765625	21610.158203125	27399.1640625	22959.9765625	19739.125	19091.943359375	24531.2734375	21497.572265625	18980.677734375	7195.90771484375	7751.97607421875	21486.552734375	19880.06640625	17737.96484375	5642.169921875	22048.80078125	21141.87109375	22650.3515625	21713.40625	19778.708984375	21281.43359375	21448.873046875	21550.677734375	19317.361328125	18940.119140625	21172.51171875	21265.876953125	22671.5625	20510.75	19800.91015625	21830.140625	22831.3984375	18255.294921875	20787.54296875	22253.275390625	21365.814453125	21825.1953125	21826.099609375	22478.8515625	23153.609375	21566.373046875	22115.87109375	20969.146484375	21398.240234375	21388.2265625	19099.548828125	19831.673828125	22992.138671875	23101.39453125	22505.533203125	20677.904296875	23044.650390625	23057.33203125	19757.556640625	21258.392578125	21346.919921875	21192.451171875	19246.908203125	20074.4140625	21755.43359375	21177.046875	22322.5234375	21058.966796875	19333.197265625	22146.697265625	23275.6328125	19034.90625	22392.400390625	21982.431640625	21252.65625	22830.267578125	21633.8046875	22618.33203125	23336.482421875	21975.8359375	22584.650390625	20948.896484375	21120.748046875	21445.087890625	19613.775390625	17888.478515625	22017.443359375	23374.04296875
900	1200	15904.8720703125	17132.779296875	17057.671875	21283.15625	17058.62109375	21104.189453125	20011.91015625	17498.94921875	14991.6962890625	17484.923828125	12348.982421875	19938.912109375	18310.802734375	14191.078125	15913.6982421875	17328.38671875	16677.673828125	21835.58203125	16259.1005859375	21336.474609375	20091.478515625	15573.546875	15045.75390625	20095.646484375	18430.259765625	15174.37890625	6578.8837890625	7151.63037109375	16892.884765625	17210.1875	13771.3544921875	5692.6162109375	17807.017578125	17566.623046875	17444.83984375	16768.2578125	17195.486328125	17226.548828125	16713.107421875	17354.748046875	15092.5146484375	15057.9423828125	16420.541015625	16696.85546875	18056.0703125	16542.71875	16001.052734375	16865.01171875	17745.046875	13645.5185546875	16482.796875	17298.31640625	16795.38671875	17220.21484375	17218.84375	17230.369140625	18099.64453125	16836.791015625	17310.6640625	16244.171875	17199.587890625	16658.974609375	14199.72265625	17689.501953125	18305.20703125	18878.970703125	17800.685546875	16982.224609375	17963.455078125	18105.1875	16651.904296875	17038.3046875	16613.888671875	16756.03125	14969.1708984375	16058.2822265625	17379.65234375	16578.61328125	18008.134765625	17079.10546875	15733.7568359375	16988.4375	17842.330078125	14692.21875	17804.396484375	17327.3515625	16468.927734375	17767.0234375	16922.107421875	17443.03515625	18788.796875	17227.85546875	17653.443359375	16335.15234375	17060.90234375	16678.98828125	14497.9794921875	16385.734375	17684.65234375	18790.81640625
1200	1500	14571.5771484375	15073.7939453125	13976.73828125	18229.572265625	14004.1083984375	17901.646484375	18322.630859375	15397.36328125	13216.2763671875	14962.1982421875	10680.74609375	16187.51171875	16348.0546875	12690.1259765625	14527.9755859375	15469.96484375	13669.1767578125	18275.4375	14026.2333984375	17551.5234375	17132.822265625	13863.283203125	14182.5556640625	16300.97265625	16396.4375	13362.2255859375	6300.4052734375	6885.66552734375	13911.349609375	15769.29296875	11710.10546875	5855.68408203125	15219.56640625	15221.3125	15066.728515625	14222.8759765625	14885.8720703125	14879.3916015625	14422.9248046875	15279.203125	13397.5595703125	13264.5126953125	14557.0009765625	14485.265625	15822.8173828125	14531.0439453125	14219.328125	14213.9580078125	15709.0849609375	12564.318359375	14318.6669921875	15254.9482421875	14353.76171875	15159.8896484375	14889.5703125	14708.830078125	15474.5107421875	14559.2353515625	14883.98046875	14196.984375	15268.4794921875	14393.0595703125	13166.6767578125	15687.515625	16037.6376953125	16419.416015625	15533.5341796875	14945.533203125	15477.2314453125	15678.0205078125	14535.333984375	14727.072265625	14242.3349609375	14609.7216796875	13329.6708984375	14012.7919921875	15362.0634765625	14134.7626953125	15738.8388671875	14895.1591796875	13684.64453125	14818.2783203125	15372.2734375	13192.9833984375	15339.4384765625	15146.3046875	14279.8779296875	15814.740234375	14649.2255859375	15078.8115234375	15901.927734375	14877.6025390625	15289.4619140625	14205.5283203125	14780.98046875	14415.8662109375	12540.9326171875	15500.6767578125	15307.2099609375	16297.44140625
1500	1800	13621.330078125	13878.9111328125	12020.853515625	15511.3427734375	12455.3662109375	15578.2041015625	16582.193359375	13906.3173828125	11840.3525390625	13499.4482421875	9780.0673828125	13763.9921875	15418.6083984375	11630.578125	13678.5517578125	14127.6025390625	11855.0927734375	16213.2470703125	12399.8193359375	15300.408203125	15704.5634765625	12268.6435546875	11845.3994140625	13955.8203125	15157.5673828125	11999.0322265625	6256.7705078125	6770.32421875	12229.431640625	14611.509765625	10531.697265625	5965.90380859375	13986.376953125	14128.8935546875	13943.0546875	12924.3251953125	13394.3203125	13588.9130859375	13246.96875	13822.8671875	12328.4375	12286.76171875	13317.2509765625	13084.287109375	14448.615234375	13569.2724609375	12737.6171875	12741.2509765625	14068.6376953125	11959.509765625	13248.1298828125	13851.802734375	13206.3837890625	13849.8779296875	13515.388671875	13348.6982421875	14173.3125	13290.0234375	13430.0947265625	12783.3701171875	14027.0732421875	13016.6533203125	11696.68359375	14655.7392578125	14521.619140625	14724.7119140625	13905.19140625	13959.1220703125	13821.5751953125	14178.287109375	13659.4892578125	13376.59765625	12881.6259765625	13281.9306640625	12324.2265625	12897.0712890625	13993.80859375	12993.6611328125	14602.552734375	13273.0126953125	12383.4423828125	13236.609375	13891.9404296875	12215.29296875	13612.0029296875	14128.18359375	12811.6025390625	14680.5419921875	13233.6884765625	13499.984375	14768.8486328125	13290.134765625	13719.1904296875	12840.470703125	13284.2294921875	12934.0146484375	12381.5068359375	14390.806640625	13535.11328125	14740.4677734375
1800	2100	12933.41796875	13057.6767578125	10667.607421875	13845.7607421875	10914.4443359375	13785.4375	15144.021484375	12521.3447265625	10848.3095703125	11916.0283203125	8937.5615234375	12002.0	13639.673828125	11224.4228515625	12952.55859375	13249.5927734375	10430.6484375	13977.84375	11036.1103515625	13870.4296875	14448.986328125	11516.876953125	11233.6806640625	11756.5732421875	13212.1826171875	10764.5390625	6069.41357421875	6670.67724609375	10849.7294921875	13120.2822265625	9687.0302734375	6066.8408203125	13333.8916015625	13124.36328125	13036.53125	12164.5419921875	13264.1103515625	12880.904296875	12121.771484375	12822.359375	11310.2939453125	11678.5556640625	12579.2265625	12334.8447265625	13561.40625	12640.2177734375	11705.421875	11836.9345703125	13202.583984375	11142.9296875	12419.08203125	13109.3359375	12011.0048828125	13021.240234375	12462.7939453125	12281.09375	13090.3154296875	12282.1044921875	12439.2607421875	11905.298828125	12895.0888671875	12026.4833984375	11134.41796875	13677.8994140625	13599.6181640625	13428.1787109375	12743.7734375	12840.5419921875	12925.509765625	12978.5234375	12246.451171875	12316.8974609375	11854.431640625	12617.736328125	11456.2119140625	12005.087890625	13168.0556640625	12320.533203125	13298.57421875	12322.7275390625	11412.9013671875	11927.818359375	13002.8701171875	11446.84765625	12695.1494140625	13053.11328125	11697.3671875	13361.232421875	12242.4658203125	12494.95703125	13390.5390625	12419.1953125	12581.3671875	11918.31640625	12212.025390625	12137.0751953125	10715.7333984375	13868.08984375	12783.521484375	13465.2890625
2100	2400	12279.21484375	11980.4072265625	9539.876953125	11997.939453125	10172.521484375	12481.701171875	13873.4990234375	11438.73828125	10047.2587890625	11106.6083984375	8204.822265625	11648.5302734375	12194.830078125	9491.4892578125	12286.876953125	12338.4033203125	9355.7724609375	12589.703125	10207.9521484375	12639.0703125	13395.0751953125	10416.6455078125	10742.267578125	10846.7763671875	12309.923828125	10120.310546875	6067.8349609375	6560.64453125	9604.5654296875	12245.6572265625	9029.013671875	6133.81396484375	12217.912109375	12469.90234375	11674.1982421875	11180.7822265625	11448.326171875	11946.1611328125	11663.419921875	12420.7451171875	10561.5615234375	11071.7236328125	11571.63671875	11462.3525390625	12281.3310546875	11860.8271484375	10866.0390625	10901.306640625	12529.791015625	10509.9482421875	11605.4755859375	12670.205078125	11181.3515625	12013.9658203125	11586.97265625	11557.8681640625	11893.0859375	11685.2138671875	11594.8740234375	11023.3115234375	12350.546875	11461.099609375	10906.861328125	12416.931640625	12728.330078125	12379.7275390625	11787.494140625	11929.798828125	11775.755859375	12365.9306640625	11408.02734375	11715.9130859375	11055.7314453125	11596.1884765625	10970.56640625	11300.396484375	12546.43359375	11348.419921875	12739.62109375	11376.2490234375	10073.2021484375	11441.900390625	12105.7841796875	10413.00390625	12022.580078125	12645.5380859375	10894.455078125	12661.8623046875	11293.24609375	11663.177734375	12154.16015625	11486.146484375	11728.8447265625	11144.1474609375	11333.72265625	11132.943359375	11173.44140625	13088.7890625	12157.09765625	12709.3779296875
