frame_start	frame_end	Left-Cerebral-White-Matter	Left-Cerebellum-White-Matter	Left-Cerebellum-Cortex	Left-Thalamus	Left-Caudate	Left-Putamen	Left-Pallidum	Brain-Stem	Left-Hippocampus	Left-Amygdala	CSF	Left-Accumbens-area	Left-VentralDC	Left-choroid-plexus	Right-Cerebral-White-Matter	Right-Cerebellum-White-Matter	Right-Cerebellum-Cortex	Right-Thalamus	Right-Caudate	Right-Putamen	Right-Pallidum	Right-Hippocampus	Right-Amygdala	Right-Accumbens-area	Right-VentralDC	Right-choroid-plexus	AirCavity	Skull	Vermis	Pons	CSF-ExtraCerebral	Head-ExtraCerebral	ctx-lh-bankssts	ctx-lh-caudalanteriorcingulate	ctx-lh-caudalmiddlefrontal	ctx-lh-cuneus	ctx-lh-entorhinal	ctx-lh-fusiform	ctx-lh-inferiorparietal	ctx-lh-inferiortemporal	ctx-lh-isthmuscingulate	ctx-lh-lateraloccipital	ctx-lh-lateralorbitofrontal	ctx-lh-lingual	ctx-lh-medialorbitofrontal	ctx-lh-middletemporal	ctx-lh-parahippocampal	ctx-lh-paracentral	ctx-lh-parsopercularis	ctx-lh-parsorbitalis	ctx-lh-parstriangularis	ctx-lh-pericalcarine	ctx-lh-postcentral	ctx-lh-posteriorcingulate	ctx-lh-precentral	ctx-lh-precuneus	ctx-lh-rostralanteriorcingulate	ctx-lh-rostralmiddlefrontal	ctx-lh-superiorfrontal	ctx-lh-superiorparietal	ctx-lh-superiortemporal	ctx-lh-supramarginal	ctx-lh-frontalpole	ctx-lh-temporalpole	ctx-lh-transversetemporal	ctx-lh-insula	ctx-rh-bankssts	ctx-rh-caudalanteriorcingulate	ctx-rh-caudalmiddlefrontal	ctx-rh-cuneus	ctx-rh-entorhinal	ctx-rh-fusiform	ctx-rh-inferiorparietal	ctx-rh-inferiortemporal	ctx-rh-isthmuscingulate	ctx-rh-lateraloccipital	ctx-rh-lateralorbitofrontal	ctx-rh-lingual	ctx-rh-medialorbitofrontal	ctx-rh-middletemporal	ctx-rh-parahippocampal	ctx-rh-paracentral	ctx-rh-parsopercularis	ctx-rh-parsorbitalis	ctx-rh-parstriangularis	ctx-rh-pericalcarine	ctx-rh-postcentral	ctx-rh-posteriorcingulate	ctx-rh-precentral	ctx-rh-precuneus	ctx-rh-rostralanteriorcingulate	ctx-rh-rostralmiddlefrontal	ctx-rh-superiorfrontal	ctx-rh-superiorparietal	ctx-rh-superiortemporal	ctx-rh-supramarginal	ctx-rh-frontalpole	ctx-rh-temporalpole	ctx-rh-transversetemporal	ctx-rh-insula
0	30	53.523685455322266	70.94869995117188	40.835506439208984	45.40545654296875	76.02674102783203	66.60084533691406	88.99868774414062	39.19654846191406	117.85688018798828	96.37315368652344	64.44990539550781	66.82752990722656	67.2167739868164	96.2550048828125	57.58747482299805	27.59014129638672	56.327693939208984	49.98963928222656	18.01395606994629	75.76023864746094	112.50556182861328	37.652042388916016	92.91386413574219	84.97119903564453	78.57796478271484	45.077003479003906	38.64517593383789	65.90039825439453	50.26247024536133	118.87525177001953	58.94778823852539	46.35853958129883	30.24958610534668	59.18994140625	78.85762786865234	54.799320220947266	263.72052001953125	44.742794036865234	35.05284881591797	59.74025344848633	84.74480438232422	25.271936416625977	72.96004486083984	31.18520736694336	66.1929702758789	38.35283279418945	103.74523162841797	47.02519607543945	68.61577606201172	46.155330657958984	43.99105453491211	30.12042236328125	42.517333984375	19.43783950805664	36.92607498168945	60.168121337890625	62.04130554199219	58.85404968261719	57.97721862792969	33.20135498046875	34.4843635559082	40.47956466674805	45.49886703491211	52.95289993286133	86.86689758300781	90.44963836669922	70.72845458984375	45.71604537963867	55.64826202392578	50.1692008972168	62.75223159790039	64.66450500488281	47.14242172241211	57.79787826538086	77.42860412597656	50.830318450927734	103.58670043945312	62.2419548034668	71.17806243896484	58.541561126708984	87.74629974365234	37.353694915771484	79.55754089355469	44.02629852294922	50.221858978271484	18.971471786499023	69.05986785888672	28.51726531982422	60.919464111328125	57.49519729614258	95.41732025146484	44.15709686279297	55.073524475097656	62.592308044433594	78.75667572021484	62.93301773071289	44.144927978515625	9.239420890808105	30.3609619140625	74.81707763671875
30	60	4229.8046875	4588.55615234375	3657.117919921875	5136.4609375	5459.34423828125	5431.17041015625	4708.67236328125	3092.540283203125	4423.83056640625	4982.80712890625	4240.42578125	6236.5224609375	4573.5732421875	5533.90966796875	4025.81787109375	4760.8857421875	3828.346923828125	5241.25634765625	4668.74462890625	5027.48291015625	4377.42626953125	4283.03173828125	4640.4296875	4897.75634765625	4754.33447265625	5482.8662109375	688.9247436523438	1783.9324951171875	5173.22216796875	3280.776611328125	4755.048828125	904.304443359375	3514.8642578125	3103.537841796875	5107.4228515625	7193.36328125	5675.81396484375	4700.00830078125	4005.85693359375	2774.6162109375	4458.5390625	4271.52734375	4953.1083984375	4989.0146484375	5876.02294921875	3870.0205078125	3186.471923828125	4930.02294921875	5676.70654296875	3530.2412109375	5379.966796875	5616.52587890625	4596.5146484375	4579.4140625	4624.30126953125	5723.21484375	5756.982421875	5592.419921875	5100.35498046875	4186.24755859375	4132.51513671875	5223.19091796875	5573.55517578125	2643.583984375	3756.148193359375	5281.96044921875	4671.91357421875	4484.15869140625	4835.1083984375	6253.74658203125	3982.264404296875	3877.719970703125	4874.7861328125	2991.629638671875	4669.93359375	4496.39404296875	4823.88037109375	5527.85205078125	6115.03759765625	3669.741943359375	3803.744140625	4890.5615234375	4953.919921875	4160.978515625	5329.0029296875	5937.86279296875	4892.52685546875	4961.64404296875	4524.28173828125	5410.09716796875	7546.11474609375	5042.00830078125	5410.35888671875	4202.9580078125	4165.2109375	5268.07421875	5044.74267578125	2289.15576171875	4689.048828125	5222.2421875
60	90	13026.0615234375	15236.2197265625	11662.48828125	15075.6171875	14386.5048828125	16367.2958984375	15106.009765625	9815.3134765625	12680.705078125	12861.865234375	13199.9228515625	15503.7373046875	10495.4853515625	15757.6181640625	12756.345703125	15088.9375	11671.203125	15657.4970703125	14208.138671875	16047.5849609375	12859.17578125	13125.083984375	12924.025390625	17287.7265625	12067.373046875	16333.2275390625	1989.78271484375	5565.55517578125	14969.947265625	9410.271484375	14241.5244140625	2876.76953125	12425.8330078125	8327.6943359375	15557.775390625	20298.994140625	13805.1572265625	14123.2529296875	13674.0234375	8005.994140625	13147.9345703125	12478.2890625	13796.0078125	15393.2734375	15477.9462890625	12241.119140625	9664.1240234375	15349.560546875	16152.40234375	10410.970703125	15051.015625	17240.859375	14759.7490234375	12655.310546875	14583.3466796875	18329.93359375	16133.1416015625	17145.548828125	15248.849609375	13513.6083984375	13227.8427734375	15564.6181640625	18189.716796875	8028.16796875	11195.3154296875	14463.94140625	13869.56640625	13975.505859375	15137.6806640625	20253.63671875	11089.169921875	12318.25	15615.8955078125	9183.2705078125	12616.98046875	13866.1435546875	13994.40625	16481.06640625	16946.369140625	12075.8447265625	10820.6328125	15005.1435546875	13969.541015625	12966.4453125	16550.650390625	18267.939453125	15413.4130859375	12392.7939453125	14246.1533203125	16982.400390625	19905.1171875	16390.0	16670.46875	13744.01171875	12885.6298828125	16401.943359375	14211.974609375	6986.6875	13000.7236328125	14339.2548828125
90	120	24169.21484375	26434.857421875	21124.669921875	28603.8984375	30359.587890625	29200.2265625	26743.58984375	18005.435546875	24013.4921875	23842.703125	24354.94140625	28550.322265625	19161.80859375	28672.583984375	23762.44140625	25375.658203125	21046.578125	27966.5546875	28043.693359375	28524.44921875	25778.345703125	24815.6640625	23099.59375	27962.322265625	19399.890625	30401.36328125	3689.213623046875	9615.2548828125	26636.08984375	16943.94140625	25842.3828125	4900.23388671875	24324.453125	15356.8896484375	27972.328125	37935.69140625	22922.326171875	25949.1796875	26499.53125	14207.263671875	23680.568359375	22905.93359375	24546.20703125	28297.201171875	27862.701171875	22684.53515625	17507.431640625	28035.458984375	28767.673828125	18213.083984375	26887.21484375	33881.578125	27800.521484375	22856.64453125	26401.1796875	33478.27734375	29082.072265625	30674.314453125	28235.869140625	25289.48828125	24847.580078125	29884.09375	32477.34765625	14254.7197265625	21972.794921875	24302.26171875	26015.109375	23315.046875	28106.5234375	37108.98046875	20059.8671875	22827.5234375	29575.666015625	16412.474609375	22442.486328125	25391.927734375	24838.314453125	29920.50390625	31315.05859375	22142.13671875	17396.61328125	27491.751953125	27367.5234375	23267.345703125	32041.52734375	33331.75	29245.421875	24935.658203125	26632.037109375	32136.98046875	34663.19921875	30042.736328125	30296.251953125	25955.765625	23641.64453125	31314.650390625	26619.865234375	13857.2109375	23954.888671875	26419.529296875
120	150	35402.76171875	39665.71875	30229.654296875	41364.53515625	41463.00390625	45076.671875	38218.90234375	25232.541015625	34416.12109375	33005.96484375	35759.55859375	38598.37109375	27153.015625	42689.21875	34688.55078125	38132.71875	30906.912109375	43534.1953125	40154.609375	43256.22265625	36269.6875	34151.36328125	30764.734375	40450.73828125	28853.576171875	46013.10546875	5330.7001953125	14105.7333984375	39539.16015625	24988.548828125	37173.76171875	7842.5	36228.5	21450.248046875	42147.5078125	55727.51171875	29533.109375	37689.4375	38834.71875	20400.51953125	34022.2734375	32985.5234375	33583.3046875	41202.13671875	38676.26953125	33504.09375	24057.708984375	39786.73828125	41712.3828125	25785.556640625	38141.68359375	50279.76171875	40669.25390625	34225.48828125	38049.8359375	48487.6484375	42015.96484375	45474.36328125	41064.4609375	36959.88671875	36222.76171875	42877.59375	47197.8984375	19953.84765625	31390.46875	35881.85546875	38067.6015625	34091.84375	40764.47265625	53766.5703125	28609.63671875	34468.28125	42867.78515625	24223.390625	33640.54296875	35555.1953125	35313.125	43736.19140625	43563.2578125	33150.60546875	26005.048828125	39484.66015625	39641.75	35120.015625	45777.6640625	46932.39453125	42125.33203125	36080.02734375	38655.3359375	46806.1875	49942.00390625	44860.82421875	43848.20703125	38661.484375	34995.55078125	44248.18359375	37308.296875	20596.751953125	36340.0390625	36529.3046875
150	180	39185.2109375	43580.328125	33880.01171875	46963.03125	47432.55078125	49900.234375	43320.33984375	28469.853515625	37424.765625	34961.484375	38277.234375	46303.7890625	28812.6328125	46405.11328125	38096.40234375	40660.15234375	34503.50390625	47655.93359375	43931.07421875	48230.28515625	38607.40234375	38782.62109375	34780.5625	40298.9375	28626.875	49181.86328125	5579.77197265625	15074.416015625	46853.1328125	28995.8359375	40762.33203125	8681.37890625	39677.37109375	24711.28515625	46364.78125	59365.84375	28994.70703125	42426.39453125	43470.078125	22148.99609375	36784.125	36610.421875	37482.52734375	46774.9140625	41693.59765625	37746.13671875	27501.3125	45920.828125	45254.76953125	30162.91015625	42974.44921875	52776.234375	44968.51953125	36193.546875	42804.33984375	53109.9375	46140.45703125	50088.2578125	45929.625	41591.515625	40003.83203125	48292.921875	51623.33984375	24776.349609375	35078.11328125	38120.53515625	45066.16796875	36744.5390625	45656.546875	58675.49609375	27753.849609375	37947.8359375	47620.84375	27331.861328125	36836.28125	39506.19921875	39238.140625	47056.76953125	48824.91015625	38225.4453125	26844.666015625	45753.47265625	43172.73828125	38680.87890625	51248.46484375	51886.1171875	46811.6875	39799.09765625	43128.2890625	51243.40234375	54431.54296875	49534.65234375	48260.32421875	43315.6015625	38698.734375	48993.49609375	41286.06640625	24836.419921875	43002.69140625	40636.4453125
180	240	39397.40625	43990.44140625	35182.52734375	48047.3359375	49028.390625	51303.3828125	41960.66796875	28899.96484375	39368.046875	35990.20703125	38444.859375	45455.24609375	28876.943359375	48728.34765625	38820.9375	41915.3125	34966.89453125	48360.546875	44609.82421875	49778.62890625	41955.6015625	38914.07421875	34341.265625	42554.66796875	29087.31640625	48596.25	5828.3271484375	15103.9111328125	46565.71484375	28646.515625	40604.55078125	8888.732421875	40100.9453125	25976.8359375	46432.1796875	59131.52734375	29855.865234375	42980.35546875	43943.05078125	22977.89453125	37954.25	37029.79296875	39006.03125	46069.4609375	43072.1953125	38997.73046875	28777.791015625	45766.72265625	44992.77734375	31255.5625	43037.7109375	52063.875	44431.5703125	38203.8359375	43226.25390625	53957.42578125	47931.9765625	50270.42578125	46751.83984375	42057.515625	40907.5625	48104.5078125	52023.91015625	25790.31640625	34744.3125	38466.16796875	45850.96875	38650.58984375	46090.515625	58862.16015625	30957.87890625	39283.484375	48777.52734375	28385.302734375	37181.90234375	39913.1328125	39908.85546875	47867.94921875	47668.21875	38644.7734375	27497.44140625	44828.921875	43642.84375	39262.63671875	50387.96484375	52010.97265625	46242.9296875	39446.94921875	44088.22265625	51668.15234375	52785.58203125	51075.4375	49000.70703125	43610.9453125	39681.1640625	48726.91015625	42292.015625	26674.681640625	43134.35546875	40856.37109375
240	300	37921.16015625	42659.05859375	34791.44140625	48180.68359375	49005.87109375	49172.50390625	42209.8671875	28639.64453125	38585.87109375	36103.546875	36215.11328125	40159.06640625	28875.5234375	44059.14453125	37490.8984375	40963.2421875	35013.65625	48215.3671875	44545.671875	48251.54296875	40467.58203125	38539.84765625	33710.62109375	41091.015625	29043.86328125	47519.83203125	5723.4375	14577.46875	45304.28125	28512.994140625	38605.56640625	9084.0009765625	39553.76171875	26878.32421875	45106.14453125	53683.3125	29695.41015625	41425.88671875	42291.02734375	22493.998046875	35863.37890625	34907.79296875	37513.484375	43526.0078125	41832.59375	38086.9296875	28489.125	43647.3515625	42987.77734375	30978.2578125	40797.83984375	48739.9921875	43329.53515625	37166.1484375	41465.8125	49972.58984375	46442.015625	48348.796875	45199.47265625	40641.6328125	40017.73828125	45462.9765625	51741.3359375	26625.23828125	35359.953125	37541.6640625	43956.41015625	38136.1953125	44285.75390625	53667.359375	30306.189453125	37719.73046875	46760.11328125	27915.416015625	36468.40625	37743.91015625	39287.39453125	46071.83203125	45903.61328125	37875.0	27239.884765625	43649.57421875	41930.15625	38242.0859375	48166.12890625	48000.90234375	45196.23828125	37924.08984375	42763.1015625	48401.64453125	49097.265625	49106.41015625	46661.7421875	42541.15625	39109.41015625	47010.2890625	40466.328125	25491.1796875	41666.51171875	40179.734375
300	360	36079.4453125	39610.5	33639.328125	46745.75390625	46107.76953125	47955.85546875	41168.46484375	27567.587890625	36369.921875	35965.1328125	33635.44921875	43019.5703125	28550.876953125	42241.76953125	35540.65625	38301.5234375	34005.42578125	47529.77734375	41989.63671875	46926.671875	39191.78125	36945.3828125	33362.66015625	38096.72265625	28253.9765625	43536.98828125	5608.74462890625	13791.662109375	43669.15234375	27898.177734375	36024.86328125	9141.720703125	37296.8125	27557.408203125	42346.125	48395.6796875	28695.599609375	39161.390625	40115.859375	22281.302734375	33157.42578125	33156.91015625	36590.97265625	40116.1171875	40696.875	36381.0859375	27625.6484375	40902.0078125	40391.578125	29145.0625	38465.62109375	44946.87890625	40193.84765625	36320.0078125	38891.1640625	46925.203125	44371.5	45396.265625	42918.11328125	38506.90234375	38042.7421875	43774.1796875	48459.88671875	27396.033203125	33377.5625	36639.09375	42511.46484375	36860.33203125	42417.32421875	49322.578125	29217.859375	36479.87890625	43930.23828125	28608.703125	33831.81640625	34947.38671875	37440.046875	42344.15234375	43693.3125	36572.59375	28424.21484375	40138.7578125	40840.11328125	36525.68359375	44972.640625	44843.15625	42082.8125	37219.26171875	39793.62109375	45160.8515625	46137.0390625	45785.30078125	43496.2109375	39955.4375	37517.29296875	43228.24609375	38204.46875	26938.46875	39877.7578125	38345.46875
360	480	33009.76171875	36576.30078125	32351.15234375	44337.33203125	42220.63671875	45387.84765625	36883.76171875	27116.66015625	34228.50390625	34993.80859375	28578.126953125	38020.7890625	28780.888671875	37608.62109375	32577.712890625	34493.23046875	32787.01953125	44676.80078125	38264.19140625	43535.9609375	38409.30078125	33950.53125	32313.5	34177.37890625	28010.994140625	38323.88671875	5454.78662109375	12636.958984375	41117.57421875	28044.099609375	31887.994140625	9192.330078125	34800.48828125	27749.443359375	38371.8046875	41539.35546875	26799.86328125	35537.59765625	36685.59375	22390.904296875	30203.255859375	30503.333984375	33496.45703125	35417.3125	36846.71484375	33804.26953125	26477.93359375	36450.484375	36740.046875	27605.05078125	34525.13671875	40003.0546875	36556.0390625	33599.234375	35734.08203125	40288.921875	39400.13671875	40191.65625	38618.640625	34943.078125	34707.5703125	38740.42578125	43467.94140625	27446.0625	31767.25	34255.54296875	39303.11328125	35212.80078125	37951.046875	42554.234375	28179.4609375	34066.03515625	39512.15234375	28010.32421875	32140.263671875	31538.732421875	34497.6953125	36600.9375	39214.65234375	34331.1015625	25528.099609375	36764.8671875	36456.2109375	34420.50390625	39691.0390625	39218.6484375	37681.87890625	34895.0625	36369.65234375	40180.33203125	41209.125	40913.80859375	39425.57421875	36216.96484375	34860.37109375	39608.703125	35390.84765625	26012.513671875	37094.90234375	35408.3359375
480	600	29334.142578125	31681.880859375	30009.095703125	40722.89453125	36563.80078125	40327.36328125	36865.2578125	24825.2109375	31044.328125	31778.876953125	23457.052734375	37320.4296875	27410.189453125	29721.6328125	29038.125	31238.388671875	30477.05078125	41266.6015625	33382.45703125	38702.46484375	34976.03125	30282.49609375	30382.8515625	31984.41015625	26619.931640625	32072.90625	5232.09228515625	11350.7353515625	36045.828125	26986.0546875	26839.97265625	9347.6962890625	32647.37109375	27090.244140625	33490.9453125	34230.53515625	25019.107421875	30848.166015625	32127.490234375	22137.025390625	27498.337890625	27105.224609375	30271.90625	29722.248046875	33060.89453125	30254.662109375	24615.6484375	31122.302734375	32115.37109375	25956.76953125	30159.587890625	33514.6640625	31462.53125	30572.5390625	31342.396484375	34132.3515625	33833.79296875	34652.5625	33674.22265625	30335.5078125	30786.751953125	33045.65234375	37611.98828125	27523.669921875	30637.837890625	31147.181640625	33927.77734375	32323.212890625	33343.91796875	35019.93359375	26786.9765625	30614.53125	34105.2734375	27381.751953125	28689.8359375	28100.0703125	30529.724609375	31380.244140625	33601.94140625	30978.974609375	25718.513671875	30861.005859375	32524.1796875	30518.0546875	33592.64453125	32819.21875	32300.431640625	31843.48046875	32207.142578125	34028.2421875	34385.25390625	35407.5078125	33582.59765625	31318.515625	30736.609375	33342.04296875	30506.63671875	25404.66796875	32452.240234375	31670.8125
600	900	24497.228515625	26918.11328125	25137.837890625	33937.28515625	28282.51953125	32993.66796875	32048.205078125	22347.056640625	25428.224609375	26269.767578125	16891.802734375	29826.21875	26255.0234375	21128.556640625	24317.232421875	26590.384765625	25610.4140625	33409.01953125	24792.095703125	32022.203125	30896.541015625	24924.990234375	25953.173828125	27685.7265625	25672.93359375	21725.14453125	4914.345703125	10072.16015625	26589.18359375	25028.896484375	19619.63671875	9456.2763671875	26494.240234375	25702.88671875	25776.345703125	25613.150390625	21877.146484375	24291.0703125	24782.412109375	20930.63671875	22894.015625	22040.1953125	24922.9609375	22942.607421875	26287.88671875	24757.4453125	20888.14453125	24273.634765625	24755.517578125	20823.70703125	23917.58203125	25220.708984375	24073.103515625	26234.85546875	24618.181640625	25810.017578125	27443.455078125	26561.27734375	26327.912109375	23598.841796875	24786.4140625	25452.82421875	27854.404296875	23669.880859375	25644.869140625	25750.2265625	27718.984375	26442.044921875	25413.458984375	25912.78515625	22201.005859375	25131.939453125	26216.064453125	24311.66796875	23945.8671875	23642.173828125	24957.271484375	24323.810546875	26474.595703125	25642.5390625	21680.365234375	23447.8203125	25771.125	24552.40625	25626.45703125	25629.197265625	24501.396484375	26418.626953125	25276.724609375	25923.908203125	26991.953125	27175.28125	25644.607421875	24445.6328125	24583.275390625	26120.134765625	24328.05078125	22069.849609375	26642.888671875	26137.64453125
900	1200	19986.265625	22271.724609375	18462.71484375	24441.12890625	18193.5625	24181.4140625	25242.47265625	18001.625	19649.224609375	20483.447265625	12147.2158203125	21585.298828125	22837.53515625	14106.2958984375	20025.923828125	22200.00390625	18659.109375	24406.548828125	18161.046875	23379.423828125	25448.349609375	19364.755859375	20996.7109375	21449.3359375	22466.048828125	13284.740234375	4555.57666015625	9029.0830078125	18453.07421875	21608.138671875	13014.0224609375	9362.2568359375	19818.541015625	19747.21484375	17773.919921875	18011.513671875	18087.251953125	18517.6015625	17473.892578125	18419.517578125	17703.68359375	16977.814453125	19368.701171875	17187.333984375	19242.55859375	19100.078125	17297.08984375	17556.119140625	18087.376953125	16923.705078125	18037.1328125	17506.2578125	16768.65234375	19725.458984375	17881.794921875	18421.626953125	19921.5859375	19209.89453125	18485.87890625	16184.7861328125	18149.51171875	17883.642578125	19157.537109375	18670.67578125	18615.681640625	19728.43359375	19981.19140625	19307.953125	17190.904296875	17910.591796875	18479.310546875	19689.271484375	17829.80078125	19438.40234375	18198.22265625	17981.265625	19320.958984375	18282.494140625	19254.9140625	18575.66796875	18381.732421875	17345.431640625	18053.078125	18401.849609375	17590.19921875	18207.625	16626.72265625	19186.498046875	17475.41015625	18525.65625	19355.728515625	18930.212890625	17646.955078125	16545.267578125	17279.95703125	17737.404296875	18730.7265625	17938.947265625	18331.435546875	19579.19921875
1200	1500	17171.015625	18896.3359375	14130.6181640625	19253.458984375	13563.04296875	18781.33984375	21636.7421875	14534.2041015625	16260.099609375	17137.578125	10413.9072265625	16472.55078125	19940.8671875	11816.0517578125	17024.55859375	18539.19921875	14425.1142578125	18463.8828125	13758.1787109375	18035.470703125	20978.28515625	15599.2626953125	16641.330078125	16737.81640625	19255.755859375	11007.2275390625	4392.6826171875	8565.8828125	13633.30078125	18582.427734375	10058.908203125	9394.4677734375	15488.8515625	15799.642578125	13451.6328125	13737.7587890625	14462.439453125	15321.0498046875	13232.1806640625	15187.4208984375	14618.154296875	13790.9736328125	15582.4912109375	13841.3037109375	15135.3271484375	14796.01171875	14569.935546875	14164.470703125	14134.9873046875	13164.779296875	14439.2998046875	13855.1708984375	12645.1953125	14972.9208984375	13372.634765625	14230.498046875	15610.38671875	14738.0185546875	13904.9912109375	11879.2353515625	13956.0322265625	13562.02734375	14859.107421875	15076.7724609375	14300.75	15715.8798828125	15379.689453125	15007.435546875	12982.5068359375	13373.724609375	14858.2744140625	15879.99609375	13743.5849609375	15795.052734375	14049.96484375	14444.072265625	15400.927734375	14416.0693359375	15132.82421875	14651.322265625	14195.8193359375	13622.166015625	13845.7890625	14330.69921875	13663.55078125	14473.2470703125	12413.0498046875	14443.625	13191.416015625	14316.3076171875	15393.970703125	14724.7822265625	13371.5263671875	12294.6640625	13390.8623046875	14015.921875	14146.3046875	13816.8076171875	13710.0283203125	15156.9052734375
1500	1800	15315.2333984375	16328.7158203125	11714.25	15608.4912109375	11318.2509765625	15662.0439453125	18428.16015625	12553.0986328125	13731.955078125	13701.9267578125	9567.7333984375	13655.8876953125	17415.1015625	10479.1953125	15208.3984375	15992.1572265625	11753.791015625	14791.08203125	11325.830078125	15452.7236328125	18041.185546875	13352.439453125	12849.302734375	13133.732421875	16235.5	9594.525390625	4253.80712890625	8293.6083984375	11222.3974609375	16333.794921875	8575.130859375	9265.310546875	13226.9296875	12806.9228515625	11174.1767578125	11834.0654296875	12586.0625	13247.9208984375	11272.8232421875	13193.482421875	12533.021484375	11822.720703125	13466.7958984375	12007.916015625	12652.0546875	12221.7958984375	12482.708984375	11959.6689453125	12026.0888671875	11724.892578125	12262.359375	12154.244140625	10832.984375	12379.841796875	11127.78125	12324.60546875	13010.9453125	12494.9453125	11613.9248046875	10029.1611328125	11513.0078125	11516.2177734375	12415.8994140625	12686.4423828125	11567.6201171875	13100.3193359375	12887.5546875	12469.5673828125	10805.3232421875	11287.31640625	13197.380859375	13538.4716796875	11612.1484375	13361.6865234375	12182.091796875	12525.46484375	13190.1982421875	12366.138671875	12827.5947265625	12309.3876953125	12250.4716796875	12014.3271484375	11797.4833984375	12321.396484375	11447.29296875	12648.1240234375	10585.46875	12213.1142578125	10976.720703125	12248.3173828125	12656.974609375	12169.6982421875	10994.49609375	10302.8466796875	11123.4599609375	11700.697265625	12061.6875	11328.8388671875	11594.416015625	12694.228515625
1800	2100	13965.6630859375	14686.7080078125	10187.50390625	13461.60546875	9899.7412109375	13836.7373046875	16322.1123046875	10941.1748046875	12495.9296875	12092.8447265625	8810.0068359375	11225.5576171875	15077.126953125	9618.849609375	13786.80078125	14541.6318359375	10294.05859375	12653.419921875	10203.5908203125	13043.4248046875	16264.3779296875	11844.1904296875	11574.759765625	10766.6953125	14229.7412109375	8568.8369140625	4161.4384765625	8138.2998046875	9545.0146484375	14541.5673828125	7731.9521484375	9124.3271484375	11563.7001953125	11073.1845703125	9807.681640625	10539.345703125	11054.263671875	11771.9677734375	10097.494140625	11649.5400390625	11641.271484375	10620.8994140625	12257.8427734375	10986.8349609375	11097.5810546875	10653.9619140625	11276.8154296875	10575.578125	10272.05859375	10208.17578125	10803.27734375	11174.974609375	9475.490234375	11161.572265625	9906.822265625	11049.2734375	11306.2724609375	10906.3701171875	10125.7978515625	8708.373046875	10037.5263671875	10124.4970703125	10852.13671875	10926.6328125	10014.0908203125	11550.1123046875	11294.41796875	10731.5517578125	9749.2646484375	10391.3994140625	11378.935546875	11936.4013671875	10254.048828125	12013.16796875	10865.1103515625	11165.9716796875	11776.9111328125	11215.125	11251.6767578125	10669.91015625	10947.2529296875	10650.6572265625	10514.955078125	11150.400390625	10690.1494140625	11696.0810546875	9450.5810546875	10604.5751953125	9740.3857421875	10830.927734375	11337.0234375	10943.46875	9606.943359375	9102.166015625	9680.158203125	10385.11328125	10711.3828125	10220.3603515625	9967.4755859375	11099.1259765625
2100	2400	12761.3017578125	13090.1396484375	9016.478515625	11797.8984375	9174.875	11983.41015625	14539.6005859375	9489.61328125	11168.3798828125	9975.9560546875	8495.4482421875	10431.798828125	13322.2958984375	8870.201171875	12600.9541015625	12894.69921875	9109.734375	11143.6337890625	9007.0869140625	11861.478515625	14203.2080078125	10894.5	10404.95703125	10388.7763671875	12919.7001953125	8106.10791015625	4028.5693359375	7896.96484375	9120.826171875	13165.357421875	7049.59619140625	8910.615234375	10587.26953125	10362.0654296875	8722.193359375	9505.4345703125	10299.5478515625	10568.65625	9127.025390625	10473.8583984375	10222.9990234375	9608.119140625	10868.9169921875	9778.1396484375	10040.6435546875	9802.8359375	9641.1298828125	9956.6171875	9564.296875	9332.9677734375	9887.2919921875	10356.4072265625	8762.392578125	9791.5400390625	8818.521484375	9760.7158203125	10070.3994140625	9746.6484375	8975.6240234375	7900.1416015625	8907.998046875	9151.2109375	10368.3271484375	9571.87109375	8968.986328125	10597.6630859375	10964.474609375	9948.806640625	8536.537109375	9243.8427734375	10693.9716796875	10918.3544921875	9207.9736328125	10497.544921875	9814.484375	10192.6845703125	10773.376953125	10141.21875	10016.220703125	9412.6171875	10103.892578125	9779.3916015625	9341.9873046875	9808.55859375	9444.0166015625	10399.4228515625	8306.59765625	9158.3369140625	8767.4521484375	9895.62109375	10155.916015625	9534.8876953125	8661.7939453125	8160.7607421875	8796.6611328125	9250.380859375	9709.6708984375	9130.1796875	8714.6416015625	9984.0439453125
2400	2700	11680.8232421875	11681.0869140625	7949.2177734375	10206.4287109375	8120.56884765625	10774.8427734375	12822.7412109375	8370.6591796875	10318.9755859375	9539.294921875	7774.68994140625	9258.5771484375	12276.66796875	7985.89208984375	11620.6630859375	11501.26953125	8121.7314453125	9783.1669921875	8177.78076171875	10845.66796875	12099.9228515625	9648.8076171875	8827.5673828125	8543.369140625	11176.728515625	7052.31396484375	3914.087646484375	7725.26513671875	8324.896484375	11546.8603515625	6480.33154296875	8743.4658203125	9722.765625	8966.642578125	8078.919921875	8559.6748046875	9067.0517578125	9769.935546875	8346.927734375	9696.6845703125	9686.0361328125	8747.6865234375	10140.4775390625	9084.076171875	8950.251953125	8625.0478515625	8847.4912109375	8802.1396484375	8770.0361328125	8740.078125	8915.0234375	9710.525390625	7731.04541015625	8788.810546875	8051.5625	9057.0439453125	8944.96484375	8892.9111328125	8073.24853515625	7260.21484375	8023.22802734375	8387.447265625	8652.5849609375	8765.5419921875	7812.54931640625	9365.9404296875	9378.7578125	8857.8056640625	7956.4375	8785.482421875	9027.6025390625	9680.66796875	8241.1025390625	9518.0517578125	9174.1806640625	9358.5419921875	9628.515625	9288.2158203125	8959.98046875	8577.052734375	8626.140625	9017.9833984375	8402.478515625	8936.59375	8222.126953125	9703.05078125	7622.8837890625	8810.9970703125	8060.47265625	8872.0107421875	9185.3291015625	8763.720703125	8060.994140625	7275.021484375	7624.20068359375	8491.34765625	8724.671875	7946.27734375	8076.80126953125	8768.0625
