frame_start	frame_end	Left-Cerebral-White-Matter	Left-Cerebellum-White-Matter	Left-Cerebellum-Cortex	Left-Thalamus	Left-Caudate	Left-Putamen	Left-Pallidum	Brain-Stem	Left-Hippocampus	Left-Amygdala	CSF	Left-Accumbens-area	Left-VentralDC	Left-choroid-plexus	Right-Cerebral-White-Matter	Right-Cerebellum-White-Matter	Right-Cerebellum-Cortex	Right-Thalamus	Right-Caudate	Right-Putamen	Right-Pallidum	Right-Hippocampus	Right-Amygdala	Right-Accumbens-area	Right-VentralDC	Right-choroid-plexus	AirCavity	Skull	Vermis	Pons	CSF-ExtraCerebral	Head-ExtraCerebral	ctx-lh-bankssts	ctx-lh-caudalanteriorcingulate	ctx-lh-caudalmiddlefrontal	ctx-lh-cuneus	ctx-lh-entorhinal	ctx-lh-fusiform	ctx-lh-inferiorparietal	ctx-lh-inferiortemporal	ctx-lh-isthmuscingulate	ctx-lh-lateraloccipital	ctx-lh-lateralorbitofrontal	ctx-lh-lingual	ctx-lh-medialorbitofrontal	ctx-lh-middletemporal	ctx-lh-parahippocampal	ctx-lh-paracentral	ctx-lh-parsopercularis	ctx-lh-parsorbitalis	ctx-lh-parstriangularis	ctx-lh-pericalcarine	ctx-lh-postcentral	ctx-lh-posteriorcingulate	ctx-lh-precentral	ctx-lh-precuneus	ctx-lh-rostralanteriorcingulate	ctx-lh-rostralmiddlefrontal	ctx-lh-superiorfrontal	ctx-lh-superiorparietal	ctx-lh-superiortemporal	ctx-lh-supramarginal	ctx-lh-frontalpole	ctx-lh-temporalpole	ctx-lh-transversetemporal	ctx-lh-insula	ctx-rh-bankssts	ctx-rh-caudalanteriorcingulate	ctx-rh-caudalmiddlefrontal	ctx-rh-cuneus	ctx-rh-entorhinal	ctx-rh-fusiform	ctx-rh-inferiorparietal	ctx-rh-inferiortemporal	ctx-rh-isthmuscingulate	ctx-rh-lateraloccipital	ctx-rh-lateralorbitofrontal	ctx-rh-lingual	ctx-rh-medialorbitofrontal	ctx-rh-middletemporal	ctx-rh-parahippocampal	ctx-rh-paracentral	ctx-rh-parsopercularis	ctx-rh-parsorbitalis	ctx-rh-parstriangularis	ctx-rh-pericalcarine	ctx-rh-postcentral	ctx-rh-posteriorcingulate	ctx-rh-precentral	ctx-rh-precuneus	ctx-rh-rostralanteriorcingulate	ctx-rh-rostralmiddlefrontal	ctx-rh-superiorfrontal	ctx-rh-superiorparietal	ctx-rh-superiortemporal	ctx-rh-supramarginal	ctx-rh-frontalpole	ctx-rh-temporalpole	ctx-rh-transversetemporal	ctx-rh-insula
0	30	51.608543395996094	41.06926345825195	35.72544479370117	22.353147506713867	129.388427734375	104.11892700195312	83.79463958740234	90.21286010742188	162.10755920410156	187.30601501464844	0.9802348613739014	-14.649564743041992	32.966552734375	-443.1451416015625	51.96175765991211	64.40587615966797	84.73025512695312	28.067991256713867	87.84845733642578	261.9349365234375	9.880473136901855	145.5668487548828	235.2723388671875	160.36544799804688	105.93953704833984	-114.6179428100586	46.47164535522461	75.80838775634766	159.5724334716797	28.793989181518555	44.804447174072266	59.33544921875	-42.956459045410156	377.0699157714844	95.16561126708984	-0.937941312789917	263.7232971191406	20.28461265563965	58.525184631347656	32.07794952392578	87.08428955078125	85.51907348632812	67.98259735107422	2.265380859375	247.65625	83.09730529785156	236.52561950683594	31.157846450805664	120.95662689208984	80.36831665039062	-10.361005783081055	75.37944030761719	88.16230010986328	27.58076286315918	64.12882232666016	-18.547340393066406	-26.059078216552734	35.12123107910156	51.789161682128906	26.438575744628906	37.710166931152344	65.5470199584961	-45.24571990966797	181.69146728515625	-44.73240661621094	91.65959167480469	164.43191528320312	83.28075408935547	52.04537582397461	1.5703774690628052	146.36061096191406	36.747657775878906	57.513404846191406	76.04048919677734	359.17529296875	14.312784194946289	142.0273895263672	21.583112716674805	197.8452606201172	35.0525016784668	101.25016784667969	62.6617546081543	-0.723455011844635	104.08065032958984	105.2250747680664	109.05352783203125	95.31482696533203	-13.126837730407715	46.977989196777344	62.13844299316406	-122.10440826416016	63.581199645996094	73.72284698486328	16.97039794921875	36.55459213256836	76.60456848144531	48.372215270996094	565.3282470703125	-7.690003871917725	92.36163330078125
30	60	1348.3837890625	1618.5465087890625	3852.9384765625	4870.18603515625	6491.89892578125	6364.40380859375	2843.883544921875	3911.5087890625	5679.28076171875	2501.830078125	475.0357666015625	4735.01025390625	3524.828369140625	13290.4130859375	1354.7620849609375	1945.554443359375	3798.572021484375	5301.66162109375	5455.15625	7005.0615234375	1616.8753662109375	4020.29638671875	2579.70068359375	-2249.17578125	4330.7216796875	7534.93798828125	1213.3914794921875	1061.686767578125	6729.669921875	2529.968017578125	3246.93212890625	803.1325073242188	5362.07958984375	5809.79150390625	7106.333984375	6798.11279296875	4400.0029296875	5273.9091796875	4194.490234375	4998.06787109375	5269.13427734375	4964.88427734375	7634.08935546875	5753.5390625	6664.83740234375	4735.2978515625	4404.93310546875	5050.14404296875	6707.423828125	6470.99609375	6543.205078125	8937.779296875	5802.9150390625	7287.625	5240.478515625	7025.38671875	6565.876953125	5705.755859375	6199.52099609375	4192.708984375	6848.64599609375	5329.501953125	10123.7060546875	6376.3173828125	11262.1640625	5278.1337890625	6742.40185546875	6079.81689453125	5349.1435546875	6377.96826171875	4388.259765625	5177.171875	4264.822265625	4447.13916015625	7456.9462890625	4713.82666015625	7949.92724609375	5956.337890625	8001.48388671875	5160.71435546875	4318.7021484375	5812.81494140625	4627.18017578125	8100.0751953125	5750.76318359375	11298.267578125	4936.75732421875	5752.34912109375	5034.60791015625	6139.7939453125	7681.5986328125	5630.58935546875	5916.87451171875	4292.68505859375	5641.8720703125	5167.2724609375	10071.7080078125	7775.99169921875	9780.7724609375	6069.78662109375
60	90	4745.75146484375	7654.5234375	15142.638671875	20700.9609375	25176.10546875	27312.33984375	6021.150390625	13990.283203125	18681.52734375	16665.830078125	1322.6192626953125	16311.3193359375	14527.291015625	39205.2734375	4886.42431640625	6985.72607421875	15680.126953125	19749.576171875	21686.73828125	25731.1484375	11992.2744140625	16740.24609375	19388.4921875	6475.6181640625	14369.4326171875	19364.142578125	4330.28125	3555.09130859375	14601.8154296875	11798.4248046875	8421.65234375	2716.101318359375	21283.537109375	23714.275390625	26279.154296875	22400.740234375	13111.3330078125	21913.8046875	19167.79296875	19972.25	22153.072265625	19333.6640625	23624.8125	21452.921875	27710.275390625	18180.537109375	13863.0146484375	21298.98046875	24806.033203125	24056.802734375	23434.4296875	38930.4921875	21912.173828125	24005.97265625	20836.556640625	24265.326171875	21821.873046875	21866.916015625	23197.693359375	18255.810546875	21610.548828125	19796.583984375	33140.40234375	26503.791015625	37160.1875	20978.50390625	21321.169921875	25131.466796875	22829.67578125	26210.6484375	16738.18359375	19772.5859375	17207.33984375	18763.802734375	25337.90234375	19616.306640625	30269.443359375	23281.86328125	27432.3984375	18900.08203125	13103.173828125	20578.927734375	20009.642578125	28070.02734375	21948.826171875	36405.015625	20290.13671875	24047.28125	19849.671875	21785.62109375	20241.697265625	23156.099609375	23288.40234375	18690.6328125	19012.388671875	18928.16015625	33490.14453125	24248.41015625	37313.8125	22781.65234375
90	120	9013.6298828125	14451.0	29345.130859375	38808.9375	45421.23046875	46187.73046875	18421.146484375	25235.4609375	36501.9765625	23504.486328125	2004.41796875	28263.19921875	26932.62890625	47278.34375	9413.2802734375	13280.650390625	29984.19921875	36370.6953125	41924.1171875	51612.48046875	20637.234375	32236.67578125	27922.224609375	15528.0771484375	24844.8984375	39762.32421875	8060.1591796875	5973.3896484375	25992.556640625	19973.30078125	14199.78125	4739.1259765625	37647.08203125	45059.6328125	46631.75	38527.1796875	24884.240234375	42132.078125	35222.0	43724.43359375	46006.37890625	36339.46484375	47060.78515625	40793.9765625	48556.53515625	36156.734375	29199.486328125	41408.39453125	44658.40234375	43132.78125	44756.6640625	70004.7421875	43347.91015625	44752.48046875	41109.796875	43765.8671875	38119.55859375	43691.83203125	43351.06640625	36002.03515625	39819.78125	37095.53515625	58451.734375	50315.69140625	68695.9296875	40213.578125	39947.16796875	48203.53125	43092.45703125	45420.04296875	42385.21484375	35648.7265625	34467.91796875	41611.46484375	41484.75	36934.40234375	57010.04296875	45761.4765625	58949.1640625	40811.34765625	22267.8203125	38563.59765625	39680.515625	56441.5078125	42933.71484375	63810.26171875	40808.7109375	48415.23046875	38884.53515625	45639.484375	29433.57421875	45512.15234375	45140.953125	36372.4140625	35838.67578125	36281.703125	63786.28125	47271.2109375	57657.99609375	34508.76953125
120	150	13214.52734375	20601.1484375	43085.0	55998.71484375	66658.640625	70220.8046875	27416.970703125	37412.0703125	51471.27734375	34575.90625	717.8093872070312	50033.05078125	35891.25390625	88554.015625	12791.73046875	18096.03125	44448.265625	55765.41015625	63645.125	72639.0390625	27394.53515625	44127.16796875	42177.19140625	19898.8828125	37973.625	52119.78515625	11819.7841796875	8033.82275390625	41437.46875	31864.14453125	16757.962890625	6541.412109375	53665.82421875	56661.796875	70592.046875	59986.17578125	42275.046875	59370.66015625	51520.73828125	62966.29296875	57022.23828125	55798.99609375	68573.484375	61107.7265625	64262.81640625	52943.09765625	39235.984375	58193.359375	64474.48046875	64194.2578125	63142.5	105207.2109375	61365.875	69612.296875	59483.16796875	63793.94921875	61007.58984375	63019.41796875	61676.109375	55515.6796875	56612.61328125	55467.98046875	74508.3046875	76675.890625	87092.453125	51352.2109375	59177.07421875	69528.859375	64789.109375	68504.0	52162.328125	49187.81640625	51260.16015625	60066.80859375	62763.05078125	56658.44140625	78966.71875	66246.875	87296.34375	58293.70703125	35463.796875	57943.6015625	60819.703125	80300.515625	63016.9296875	98196.5703125	58801.7734375	68510.4140625	57772.8984375	61988.8671875	43837.3046875	66729.25	66731.0390625	54726.90625	51300.72265625	54145.98046875	92311.234375	75403.125	85903.1015625	50049.484375
150	180	15229.3583984375	22332.814453125	50190.75390625	59800.87109375	74527.125	75123.3828125	29547.869140625	40095.265625	54854.375	44631.62109375	184.71612548828125	50978.97265625	37432.4765625	105250.7421875	14242.0703125	21264.4296875	51002.62890625	61046.8203125	70557.6953125	83058.578125	27362.205078125	50885.81640625	44171.984375	30375.068359375	38522.859375	48386.17578125	12941.9755859375	8448.8984375	42513.48828125	35317.21875	15511.580078125	7185.6142578125	60267.16015625	66402.6640625	78360.015625	61909.59765625	45121.46875	63544.08203125	59266.44140625	73783.7109375	58872.79296875	63593.7421875	75969.0078125	69762.296875	76513.40625	60338.73046875	44918.80859375	64223.265625	74841.6796875	70334.2109375	73199.9296875	116782.453125	69650.9921875	73553.2109375	66559.5546875	72662.34375	60788.88671875	72726.28125	68746.65625	64261.2109375	62656.8984375	60813.10546875	86494.21875	79396.4140625	106565.9453125	62324.3125	64849.8828125	79481.9375	73459.7265625	82107.6875	65264.7734375	55929.92578125	58614.3125	68130.78125	72008.484375	66364.125	90407.5390625	75952.2109375	97220.8984375	71113.7734375	40959.7890625	69182.5234375	72333.703125	88641.390625	72254.375	104127.546875	65094.1484375	77202.8125	67022.75	70380.71875	52154.87109375	76506.5234375	74785.171875	63945.9609375	58340.06640625	60213.15234375	107534.1796875	84237.0546875	101765.8984375	55962.859375
180	240	16158.150390625	23346.193359375	51019.9609375	62839.66015625	77720.0	79912.875	28961.9921875	42359.03515625	54673.67578125	43203.4921875	-2754.803955078125	46871.91015625	40874.0625	72485.5546875	15231.7236328125	22272.001953125	52507.984375	62898.2265625	72288.7265625	77413.1015625	37099.671875	46226.8984375	55842.71484375	19478.83203125	40828.12109375	61662.49609375	13060.8896484375	8726.1064453125	49303.5546875	35570.5859375	13378.23046875	7461.396484375	61364.42578125	65685.75	78209.484375	60606.27734375	51688.91796875	65912.703125	59761.4453125	76694.46875	67790.71875	65832.5703125	77908.484375	67448.046875	76782.7578125	61096.20703125	45708.6484375	62781.0546875	76513.078125	67254.828125	72563.7109375	120197.515625	72824.6640625	76150.7734375	68973.03125	74529.6953125	60605.88671875	72748.4921875	72044.109375	65021.70703125	66308.0859375	62253.4296875	86594.6015625	83921.6484375	94793.421875	58949.87109375	63114.6015625	80250.5859375	74177.3984375	81681.6171875	64370.33984375	60880.5	60779.53515625	72636.2578125	66892.453125	68111.09375	90380.6875	75200.703125	102434.5234375	70141.8671875	39182.98046875	69513.8203125	69235.328125	90423.4921875	75201.625	106676.96875	67639.1796875	81676.65625	66266.7109375	70023.84375	54804.48046875	79136.796875	76586.6953125	65317.53515625	61857.37109375	62643.6484375	106579.96875	89359.6328125	92175.71875	62065.5625
240	300	16276.115234375	23793.287109375	49953.08984375	62279.734375	72454.9609375	75235.8984375	32693.794921875	41888.9375	55413.03515625	38481.33203125	-1612.218017578125	48851.3046875	39779.52734375	44690.71875	15562.755859375	21367.734375	50648.109375	61211.3515625	68541.03125	78112.3984375	36855.80078125	42877.1875	55314.27734375	13489.6796875	42102.98828125	41614.77734375	12526.4970703125	8760.2109375	47084.4140625	34242.375	12029.357421875	7696.41845703125	61679.20703125	65982.1875	76632.5	59101.40234375	52500.40234375	66741.9921875	57466.21875	76170.2890625	59161.30078125	62381.7265625	73790.734375	66025.921875	75415.5625	59881.76171875	43379.04296875	61975.62109375	71236.1015625	65119.25390625	67070.9921875	109883.703125	69023.703125	73531.59375	65100.35546875	70335.6328125	68170.7890625	70477.7265625	67648.9296875	62766.12890625	64430.02734375	60344.08203125	81047.7734375	86320.640625	89074.4140625	62601.98046875	62430.1015625	80565.296875	72315.3671875	78684.4375	60643.78125	56679.8359375	59145.4140625	72688.7578125	67336.3515625	64055.1953125	89450.796875	72032.0703125	99674.5234375	67189.953125	41818.1171875	65057.7734375	66649.96875	87364.8046875	70005.6171875	101288.625	64114.69140625	77213.9765625	63577.96484375	65993.984375	47777.08203125	75936.6015625	72472.046875	62374.8125	60909.296875	60557.89453125	101095.75	86921.078125	84347.8046875	58914.2109375
300	360	17009.751953125	23987.923828125	47261.4453125	58463.41796875	68371.9140625	68530.9140625	30924.578125	38177.00390625	52620.23828125	41770.953125	-2790.673095703125	45869.453125	39607.078125	41272.4140625	16072.48046875	21505.94140625	49167.34375	59345.4765625	63309.5546875	72756.5859375	37846.28515625	40712.62890625	51779.390625	24315.55078125	39648.83203125	56098.16015625	12317.017578125	8656.796875	38101.53515625	33928.4453125	11065.2265625	7849.74365234375	58046.11328125	65714.328125	69517.765625	50004.4375	50937.35546875	60969.58984375	52990.7578125	71285.0625	55434.51953125	57480.85546875	68514.609375	60272.62109375	72642.6875	55589.15234375	43371.42578125	57491.15625	68363.859375	60711.78125	63488.05078125	96641.796875	62729.7578125	72517.3515625	59477.29296875	63059.8984375	63033.046875	65185.6328125	62766.890625	57338.484375	60656.70703125	56200.578125	70899.375	78179.640625	78558.71875	55504.04296875	58978.6953125	72704.234375	65547.421875	71339.15625	59003.84375	51479.3203125	54537.09375	67739.3671875	64679.26171875	59933.84375	83342.0	65576.1953125	94135.5546875	62879.64453125	41837.32421875	61278.34375	63542.734375	80052.1484375	65171.6640625	84338.5859375	60109.18359375	71901.9765625	58597.76953125	60648.15625	47902.125	70467.578125	65834.0546875	57474.39453125	56444.453125	55021.47265625	89758.375	84776.2421875	75756.78125	56658.6875
360	480	16676.5625	22972.564453125	42969.27734375	54942.9140625	58566.36328125	59737.9375	33523.390625	36654.78515625	44629.6875	37756.22265625	-3317.96044921875	40641.58203125	37370.1953125	29104.400390625	16054.412109375	21094.029296875	43704.01171875	52024.56640625	56364.66015625	61948.35546875	39592.5234375	37538.61328125	45032.23828125	25053.708984375	38424.02734375	34176.52734375	11547.5576171875	8596.3359375	42093.57421875	31002.373046875	9465.1875	7982.900390625	50995.02734375	58922.2421875	59324.86328125	44583.26953125	45796.9296875	53352.328125	46419.76171875	63607.3046875	48257.16015625	48815.609375	61385.81640625	49705.33984375	66009.359375	48302.39453125	40453.640625	50891.9921875	59284.73046875	54027.5	53920.015625	78068.2578125	55175.03125	59057.578125	51875.5859375	54448.296875	57634.015625	56777.1875	55877.51171875	49229.6328125	53873.09375	48998.30859375	62390.421875	74155.1484375	64156.62890625	54293.21875	49338.0078125	58985.01953125	56994.5625	61807.07421875	50736.97265625	48837.61328125	47389.61328125	60972.80859375	52742.93359375	49958.4921875	75662.71875	57067.09375	80846.109375	55735.23046875	35956.04296875	52794.51953125	54889.37109375	66193.9765625	55928.4609375	72395.5703125	51896.1171875	56970.15625	51352.796875	51407.46875	45274.75390625	62165.7265625	57953.90625	49927.98046875	50550.640625	48247.64453125	84273.7578125	88108.7265625	61908.84375	51728.9765625
480	600	17065.958984375	22467.798828125	36419.98828125	45758.45703125	47852.640625	49311.7421875	30779.3046875	31808.92578125	37443.75390625	35689.95703125	-3477.901611328125	39081.0703125	35099.19921875	19494.96484375	15968.3955078125	20699.62890625	37294.48046875	46510.12109375	44447.6875	48399.30859375	35202.1875	27985.373046875	42902.2734375	16187.9609375	35995.78515625	39494.0703125	10519.3642578125	8399.4384765625	34224.33203125	29251.0703125	8636.7060546875	8255.4990234375	41838.1796875	44655.9375	47887.640625	34081.90234375	35834.3515625	46021.8359375	36837.25	52258.65234375	37645.34765625	38284.81640625	51819.51953125	41133.12890625	53760.18359375	40417.171875	34304.1953125	40764.171875	46866.390625	45490.40234375	43439.52734375	60337.234375	44412.1796875	45381.6875	42506.953125	44312.015625	47527.734375	45786.63671875	45065.5	40476.09765625	45300.3125	39372.734375	50363.92578125	70270.5859375	54221.52734375	46199.703125	40350.734375	52978.08203125	45856.30859375	49276.890625	44495.18359375	41951.8125	39067.2265625	51064.43359375	47005.90625	42312.9140625	63877.0234375	45792.24609375	67768.109375	46807.88671875	34333.4296875	44592.0078125	45074.8046875	56076.18359375	47439.24609375	53901.8046875	42348.37109375	47839.5	42476.703125	41907.39453125	41672.7421875	51211.69140625	48120.40234375	41331.08203125	42235.62109375	40263.77734375	68188.515625	78818.421875	42843.34375	47942.1015625
600	900	17064.1640625	21969.443359375	27645.53515625	35542.03515625	34296.7890625	33177.77734375	31553.162109375	26432.294921875	28955.580078125	30410.2734375	-3045.315673828125	28761.916015625	29159.265625	8863.7109375	15713.9814453125	20398.943359375	28230.462890625	36184.03125	31231.78515625	33801.50390625	33374.82421875	22585.076171875	36510.5546875	15365.4111328125	30843.453125	20258.23046875	9319.005859375	8045.134765625	21855.517578125	24962.7421875	6861.30615234375	8498.05078125	31777.064453125	34131.62109375	34432.48046875	25231.13671875	29277.2734375	34778.6015625	26666.044921875	40299.0390625	28277.9609375	27630.92578125	37824.6015625	29630.994140625	40706.2578125	29132.4375	26600.75390625	30402.5	34289.09375	31884.96484375	31020.70703125	36788.20703125	31476.962890625	32533.162109375	30931.849609375	31271.01953125	35310.91796875	33116.23828125	33021.1171875	29553.537109375	35452.3203125	27966.833984375	39540.88671875	58372.53125	37338.0703125	37861.06640625	28556.376953125	41659.49609375	34612.40625	35947.40625	35980.7421875	31270.337890625	29603.166015625	38771.20703125	31754.1171875	30725.99609375	47681.5546875	33996.98046875	53073.625	35230.0234375	27036.29296875	30233.34375	33636.16015625	41380.64453125	35902.390625	34390.7734375	31183.30078125	36714.3671875	32380.998046875	30292.173828125	36417.8359375	38442.34765625	35730.90234375	29956.513671875	32028.56640625	30487.697265625	41710.50390625	66720.328125	30056.580078125	37801.6875
900	1200	16205.8916015625	19729.70703125	19224.564453125	25324.482421875	20924.6953125	21261.552734375	28011.845703125	21203.234375	21787.423828125	23872.5390625	-2697.51708984375	17335.751953125	23806.87109375	14562.8203125	15615.0078125	18849.826171875	19808.80078125	25396.98828125	21192.7578125	21611.423828125	29180.1484375	16481.17578125	27629.244140625	10958.5087890625	25328.6015625	15564.5302734375	8288.98046875	7741.1494140625	17877.958984375	21255.626953125	5188.984375	8718.5048828125	21686.96484375	24319.623046875	24632.119140625	18886.873046875	22167.369140625	25667.244140625	19212.177734375	28443.236328125	20638.9453125	18793.533203125	27825.470703125	21269.587890625	30587.52734375	20518.828125	20098.744140625	21772.45703125	24438.998046875	23320.40625	22701.90625	22851.62109375	22298.095703125	23456.9921875	22161.580078125	21542.849609375	27756.978515625	23844.892578125	23315.212890625	20931.216796875	25176.17578125	20238.25390625	23467.95703125	42918.49609375	26091.6953125	30915.30859375	19960.232421875	29057.193359375	24651.3359375	25541.919921875	25645.775390625	23956.49609375	20771.640625	27574.36328125	21743.732421875	20544.662109375	35040.41015625	23467.552734375	36807.41796875	24607.8515625	18536.013671875	20295.96484375	24063.2578125	28284.3359375	23742.001953125	21693.673828125	21164.6171875	25357.986328125	22226.775390625	20676.958984375	24682.3125	26738.201171875	24836.26953125	20545.638671875	22774.671875	21194.89453125	30578.1953125	54189.08203125	21204.015625	29437.36328125
1200	1500	15595.24609375	18518.25	14558.548828125	19327.94140625	15588.8212890625	15970.4375	24133.447265625	17530.97265625	15901.0830078125	19101.546875	-2172.616455078125	7997.46337890625	19889.49609375	15519.2685546875	15259.60546875	17730.578125	14991.2900390625	19521.466796875	15380.953125	15159.87890625	24123.935546875	13325.6767578125	22858.98046875	3219.11279296875	19895.9453125	8877.037109375	7595.37451171875	7396.61962890625	12447.3310546875	18609.841796875	4489.59228515625	8863.8544921875	18130.123046875	20976.05859375	19568.13671875	15259.505859375	18278.099609375	20292.478515625	15284.486328125	22785.30078125	15601.169921875	15083.4228515625	22528.62109375	16994.361328125	24320.037109375	15929.025390625	15657.544921875	15696.6630859375	19507.51953125	19566.416015625	18724.333984375	16725.419921875	17574.109375	19281.1015625	17120.068359375	16890.3828125	22173.6171875	18504.724609375	18458.34765625	16170.787109375	19606.107421875	16540.537109375	20455.826171875	34703.62890625	21731.1796875	23532.732421875	16876.43359375	21176.2109375	19239.884765625	19071.763671875	18246.150390625	19441.66796875	16327.5693359375	21351.220703125	16585.68359375	16192.4521484375	27615.533203125	17963.265625	28711.30078125	19014.01953125	14473.361328125	15775.5595703125	18385.455078125	22957.705078125	18110.244140625	16894.544921875	16331.4755859375	18646.376953125	16989.974609375	16191.9560546875	20404.7265625	20620.9140625	19378.544921875	15896.3359375	17607.978515625	16897.845703125	22899.630859375	42264.95703125	17726.193359375	23601.19921875
1500	1800	15091.5390625	16710.42578125	11645.0673828125	15267.826171875	11166.6123046875	12181.9541015625	20105.912109375	14920.1259765625	12806.5126953125	16447.11328125	-1042.592041015625	4423.29296875	16196.763671875	7392.08056640625	14566.505859375	16267.78125	11943.310546875	14961.134765625	12775.24609375	12188.1787109375	19286.140625	9786.451171875	19372.896484375	-8373.056640625	17748.8046875	3969.9013671875	7327.283203125	7172.15576171875	10150.423828125	16423.009765625	4105.74609375	8969.2509765625	13268.8056640625	13659.9697265625	15887.9306640625	13407.96875	16619.076171875	17157.73828125	13144.4384765625	18189.1875	13031.38671875	12370.81640625	18975.189453125	14349.0849609375	19440.970703125	13091.7373046875	12600.1806640625	11694.123046875	16965.125	15987.67578125	14636.197265625	13860.92578125	14388.30859375	16287.9775390625	14309.2578125	13978.66015625	18700.35546875	15501.7099609375	15296.2705078125	13795.5927734375	16354.416015625	14372.060546875	15537.40625	28139.509765625	17438.021484375	20047.69140625	13083.0654296875	19444.998046875	16952.216796875	17070.666015625	15620.7099609375	17291.6796875	14164.6220703125	18265.9296875	13841.4296875	13945.337890625	22821.4765625	16052.57421875	25079.98046875	15590.0810546875	11080.24609375	13218.2001953125	15020.1171875	18981.576171875	15544.0341796875	15787.2734375	13974.68359375	14915.26171875	14577.8115234375	13795.4853515625	17514.59375	17542.404296875	16521.79296875	13090.6220703125	14788.107421875	14236.568359375	18204.62890625	36691.0078125	13847.0859375	20020.703125
1800	2100	14270.484375	15208.78125	9632.88671875	12263.4169921875	10197.4755859375	10017.2646484375	16822.572265625	12582.224609375	11057.32421875	12394.826171875	-154.51808166503906	-1607.0732421875	15025.064453125	9843.19921875	13848.3095703125	14978.5673828125	9846.705078125	12252.310546875	9739.8916015625	10117.9677734375	16931.490234375	9619.265625	17891.40625	-11025.37890625	14595.248046875	1467.7257080078125	6970.0078125	7000.470703125	8270.5654296875	14562.9326171875	4069.564697265625	8955.744140625	12742.166015625	12138.91015625	13920.4384765625	12841.2138671875	10160.2333984375	15804.654296875	11731.833984375	15805.1865234375	10611.0166015625	10998.640625	16051.7177734375	13722.3076171875	17777.71875	11368.2099609375	11821.2294921875	11809.32421875	13489.2041015625	14535.546875	13495.7890625	12014.7275390625	12579.3896484375	12948.6728515625	12714.275390625	12758.2177734375	16443.796875	13421.6982421875	13316.5634765625	11346.984375	13885.396484375	12945.7080078125	13149.23828125	23323.6640625	16491.193359375	17122.65234375	12402.5078125	14868.244140625	14039.7626953125	13550.6376953125	12321.8984375	15092.75390625	12386.900390625	15386.181640625	12925.9775390625	11901.2890625	19808.611328125	14196.0751953125	21207.03515625	13455.4794921875	10167.318359375	11301.48828125	13876.6220703125	15917.3271484375	13848.2451171875	13785.7177734375	12223.5029296875	13583.568359375	13005.5087890625	11479.119140625	15154.7724609375	15458.392578125	14402.787109375	11522.185546875	12816.69921875	12767.251953125	16674.5390625	31088.359375	13720.28125	17462.96875
2100	2400	13496.435546875	14036.3525390625	7957.12841796875	10835.9462890625	7941.0078125	8521.2646484375	14938.052734375	11265.1494140625	9135.244140625	11637.1025390625	52.651649475097656	-1501.5086669921875	12828.1181640625	6842.68017578125	13164.5927734375	13307.3974609375	8269.7158203125	9644.2666015625	8690.7236328125	8955.98046875	15411.3349609375	6437.3525390625	14762.0654296875	-15093.5595703125	13026.638671875	5369.0224609375	6481.4287109375	6821.10107421875	8220.2587890625	14073.3564453125	3983.35693359375	8878.6845703125	11090.189453125	13537.8974609375	12090.0048828125	11276.7392578125	7707.34619140625	14644.8720703125	10607.033203125	13653.576171875	10506.5869140625	9838.89453125	13865.2333984375	12178.216796875	14402.13671875	10078.3974609375	10064.2529296875	10617.4609375	12187.2060546875	13418.1318359375	11120.658203125	10664.158203125	11212.05078125	13234.8779296875	10866.65625	10679.2666015625	14189.279296875	12257.7529296875	11743.3408203125	10813.4052734375	12327.40234375	11529.791015625	12548.2978515625	21217.623046875	13867.9052734375	15360.697265625	10260.0029296875	12832.3505859375	12425.8525390625	12482.8251953125	10131.486328125	14467.2919921875	11095.583984375	12978.396484375	9866.8349609375	10776.21484375	16091.056640625	13342.9130859375	18961.060546875	11424.1787109375	8192.01171875	8421.0673828125	12209.1748046875	14831.658203125	12021.3330078125	12278.7529296875	10805.466796875	12136.6220703125	11111.7578125	10358.01953125	14103.380859375	13793.0263671875	12443.2998046875	10214.638671875	11764.1845703125	11597.9013671875	13691.2470703125	25938.77734375	12763.7646484375	14942.580078125
2400	2700	12742.5146484375	12602.6630859375	6734.6728515625	8687.52734375	6029.34375	7241.8798828125	14088.6591796875	9808.1953125	8317.708984375	7764.32177734375	606.991455078125	-2481.569580078125	11002.8955078125	9177.58203125	12277.244140625	12411.267578125	7037.9189453125	8652.880859375	8212.09765625	8162.537109375	11126.6376953125	7570.80615234375	12551.865234375	-17527.416015625	10422.1513671875	5472.60546875	6359.92626953125	6585.32373046875	6585.54443359375	11595.7666015625	3630.327880859375	8830.8388671875	11538.892578125	8553.314453125	11922.5283203125	9370.5615234375	7368.56689453125	13907.765625	10162.23046875	12705.3896484375	8933.716796875	8988.9736328125	13394.30078125	11871.5751953125	13629.96875	8808.732421875	9803.1220703125	8952.7138671875	12745.5625	13272.5107421875	10347.34765625	10090.9609375	10391.2421875	11690.216796875	9664.66796875	10325.640625	12454.2724609375	10939.4794921875	10650.2490234375	9483.0029296875	10876.68359375	10758.4775390625	12607.19921875	15379.3359375	14509.099609375	14476.0078125	10900.2119140625	14247.3779296875	11825.2275390625	12285.2607421875	7712.86962890625	13497.572265625	10680.6328125	12845.1103515625	10290.2470703125	10054.953125	15649.3583984375	12429.6796875	17259.310546875	10614.7412109375	7596.28759765625	9248.298828125	11287.83984375	12445.1474609375	11748.80859375	11772.78125	10137.255859375	11548.59375	10125.7880859375	9352.41015625	11463.6181640625	12526.5185546875	11515.642578125	10112.521484375	10149.2939453125	10780.501953125	13434.888671875	22906.294921875	11890.5263671875	14232.00390625
