frame_start	frame_end	parasubiculum	HATA	fimbria	hippocampal_fissure	HP_tail	presubiculum-head	presubiculum-body	subiculum-head	subiculum-body	CA1-head	CA1-body	CA3-head	CA3-body	CA4-head	CA4-body	GC-ML-DG-head	GC-ML-DG-body	molecular_layer_HP-head	molecular_layer_HP-body	Lateral-nucleus	Basal-nucleus	Central-nucleus	Medial-nucleus	Cortical-nucleus	Accessory-Basal-nucleus	Corticoamygdaloid-transitio	Anterior-amygdaloid-area-AAA	Paralaminar-nucleus
0	30	93.83568	53.64568	80.10531	87.02059	30.17517	108.54811	58.92795	150.11408	41.26532	49.44797	45.81981	61.76562	70.70874	64.44186	72.35054	56.40959	71.31788	73.3427	59.29761	38.82302	55.29964	45.33092	30.91524	46.56155	78.31518	117.2743	135.03578	46.13922
30	60	4731.63753	3804.34866	3843.41248	4121.61245	3044.94349	4605.27642	4259.43686	3507.52812	3692.01635	3610.2556	2604.73772	4815.8785	4012.07613	4232.40503	4046.06604	4297.51083	3933.83752	3975.01335	3738.84072	2696.58224	4264.98358	3172.39457	2874.73124	2714.86715	4053.09347	4459.81002	4803.02513	4457.4917
60	90	13076.1382	11108.68137	13052.32021	11965.38926	11632.3931	12648.86429	11462.48336	10470.30047	10976.45714	11858.94085	9843.70307	14888.35277	11987.09286	12487.93895	11718.68612	12607.7329	11572.22898	12409.33348	11212.80218	9277.00387	12172.1037	11315.39032	8686.47115	9489.61079	11568.41012	11570.82801	12862.84504	12695.08212
90	120	21743.53305	20285.00917	22029.68657	21928.67443	20478.59324	22287.50277	20185.10481	19284.8883	20349.63591	20549.71554	16783.13819	27490.60181	22420.52997	23557.12714	23401.30405	23261.16844	22441.7811	22332.42184	21039.94042	17344.33939	20607.69522	21350.9414	16918.91139	18096.49319	20866.10365	20097.26602	20215.33061	20471.76318
120	150	28879.74112	27521.674	32674.5858	29749.10038	27539.2699	28931.57937	27265.62243	27651.50446	30293.70689	27289.5112	25118.27091	35401.03485	33835.95495	30323.16142	33043.71603	29399.14508	32090.34572	29352.99889	30780.46888	25199.75455	28697.39901	28325.30013	22617.86795	25525.8865	29228.32219	27476.02537	28658.08892	27666.69042
150	180	32469.92556	29337.66519	34297.78207	35744.59094	32557.23964	35995.72955	30278.03509	32731.42145	35278.44741	32657.90273	30525.03741	41272.86866	34607.92208	38661.60822	36528.49046	35860.2192	35654.88728	36104.43293	34196.79658	29706.27709	32682.6735	36467.31844	27694.39079	29879.92574	33925.20179	29520.14014	30942.21196	30915.13661
180	240	29951.4105	32449.75915	36654.92318	33551.29006	33856.4428	33469.29391	30352.48836	33806.43859	33976.86264	32910.77528	31536.94281	39133.20824	38028.16452	36772.59577	38188.87388	34672.65231	36757.39317	35618.63675	35096.28912	31011.30384	34631.01948	38135.20831	27601.656	31410.30174	36972.7951	31143.75979	30816.58763	32538.06709
240	300	28344.16472	30961.47828	34207.72697	34525.69713	30762.37199	33757.02411	29940.19437	34443.13411	34452.96498	32398.37687	29648.85318	37051.17967	33295.89941	37453.82143	35507.94621	35047.21389	34533.16483	34914.97421	32943.08945	32611.8729	34134.21573	36045.74212	29716.50892	32085.64193	35384.87102	29438.54249	32024.92711	30357.5442
300	360	28117.08187	28888.01533	31997.55981	33833.38635	32048.77039	33975.80438	28665.55854	33950.06997	34433.77331	31097.73641	30266.11889	34676.3222	32664.06435	36065.21615	34563.21273	33887.70673	33921.74465	34228.68291	32952.73806	30900.86207	32706.48057	36790.4664	28250.5315	34311.45803	36411.99024	29671.74678	30029.82074	28608.40316
360	480	23812.61682	26517.79067	29242.70656	29115.21102	28503.67188	27971.61314	26154.76812	29256.38058	30721.15771	27814.94804	26270.6399	31259.10247	27996.93299	31665.46556	30120.69164	29699.45399	29604.182	29813.75649	28503.87115	29110.68612	30933.33417	30297.50876	25767.94565	27554.07452	31062.68032	26189.59441	27699.13023	27555.43061
480	600	21622.38148	23478.61802	25740.57255	27106.32722	24536.98501	25660.99164	23724.63643	26203.36407	27198.4534	25838.50131	24131.41155	25962.67926	24943.56595	28669.58315	27290.85521	27330.92659	26802.9908	27227.18636	25866.17137	27092.3954	27401.88243	28273.09026	23948.35895	25206.15503	27420.62036	23475.60189	26856.71448	23499.69451
600	900	19104.86741	20899.1791	20770.24411	22025.73931	19722.74964	22508.34982	19227.01798	22831.88736	22484.42024	21650.59997	20896.43592	21586.26261	20531.80431	22652.76566	21700.62304	22035.12519	21536.41484	22758.98633	21189.72305	23516.45258	23960.16609	23920.48444	20879.16253	22467.53581	23876.23163	21109.16298	22572.59537	21034.9647
900	1200	14735.85428	16718.15817	16654.60318	17254.44548	16159.41847	17231.92326	15959.3714	17745.57803	17879.12523	16941.20594	16599.70561	17089.90226	16430.24962	17609.56444	16951.47742	17255.56276	16917.17099	17427.26638	16873.13278	19575.062	18784.56443	18768.28552	18478.39818	18631.23537	18751.7431	16945.1561	18447.43338	16806.93029
1200	1500	12785.51165	15013.18428	14087.78252	14241.90443	13424.9101	14603.89486	13210.57708	15031.36026	15092.05735	14525.96079	14554.01527	14073.24852	14259.57679	14399.29226	14368.71373	14347.99689	14394.11756	14666.87895	14445.29193	16610.22701	15625.17577	16227.38402	15692.6185	16129.20117	15627.37323	14299.43291	15400.29118	14280.78893
1500	1800	11032.22934	12207.7789	12936.79673	12300.82533	11838.78276	12522.67405	11812.47234	13217.93352	12684.75387	12404.22413	12356.587	12078.87965	12513.24401	12249.5117	12046.65543	12306.89465	12139.29057	12566.77403	12240.56133	14269.38198	12613.45384	13738.37522	14338.48883	14289.92324	12584.97646	11751.24177	12724.6298	11375.91377
1800	2100	9826.78812	11189.31763	11327.68658	10701.64475	10129.63382	11031.84012	10299.90372	11698.41475	11417.4998	10937.63507	11396.2339	10588.41337	11685.60091	10596.39379	10838.32278	10770.98323	10992.67812	10904.63603	11175.21707	12195.40054	10923.71426	12840.46022	13570.38031	12424.45113	11165.92103	10934.41606	10568.68088	10128.05011
2100	2400	8848.23151	10930.68746	10470.53179	9547.31145	9027.22523	9540.86822	9007.92604	9732.58554	10134.14959	9651.7237	10292.62571	9670.21083	10584.53728	9027.19121	10125.36722	9380.11212	10115.29206	9543.78753	10033.94476	11148.37887	9967.28127	10746.5201	11483.02386	11324.47049	10059.94824	9437.40656	9128.9505	9299.93143
2400	2700	7042.05499	10591.64814	9381.44782	8046.85235	8284.92746	7703.16682	7379.02915	8571.13405	8302.31208	8675.26708	9239.71041	9254.64751	10089.8626	8075.98776	8697.26388	8541.79542	8749.96847	8241.69957	8725.01991	9849.69248	8615.35951	9818.80742	10995.14589	10585.79655	9492.37884	9109.28136	8740.02063	7432.97478
2700	3000	7372.97057	9439.05997	9149.0535	7778.55938	7429.0547	7489.70745	7379.51536	8089.31536	7919.37579	7942.23192	8928.79928	8111.27002	10144.9393	7695.80198	8529.19974	7929.06184	8453.94903	7777.45473	8474.83522	8383.21078	7020.76985	8224.53674	9765.9286	9318.35059	7647.89173	7824.76669	7620.79801	7142.13534
3000	3300	6409.51054	9058.09808	7974.94085	6686.47219	6748.47542	6038.78087	6730.30518	6890.94311	7092.86004	7366.4793	7914.19147	7419.16049	8774.28385	6379.69098	7494.72802	6863.25887	7499.44134	6793.88538	7649.42349	7715.17481	6885.26598	8466.10589	10062.27008	8948.73168	7597.47244	7740.84609	6548.8453	6471.18859
3300	3600	5772.76836	8454.1184	7522.82759	6248.49019	6816.17596	5503.09074	5770.23535	6426.09537	6423.81579	6665.32132	7903.13836	7341.10296	8614.32534	6076.63554	7143.59511	6475.47247	7066.97495	6290.76566	7203.74093	7759.28791	6017.77198	6277.31784	8497.56927	8312.82154	6458.05998	7174.36378	6078.71457	6095.10671
3600	3900	5847.38669	7166.0734	7000.22556	5800.92049	6392.49398	5581.02089	6419.23513	5534.66119	5866.60596	6087.92992	6500.22643	6566.17808	7509.06659	5148.82696	6240.02078	5679.97568	6227.23868	5562.72359	6337.7631	7559.0511	5281.6522	6336.07268	7718.13903	6877.76148	5770.50801	5796.47513	6186.71578	5474.39351
3900	4200	4493.37007	5923.18118	6702.20311	5897.4594	6145.26183	4992.76647	5586.84563	5945.11052	5937.79536	5872.31253	6548.59841	6209.6217	6993.45494	5789.21627	6425.15643	5846.27979	6313.80447	5738.80195	6281.36526	6637.03295	5436.54697	6701.64879	7093.89052	6555.77764	5637.21388	5762.73786	5918.4988	5338.17231
4200	4500	4815.7055	5801.81014	5908.44289	4764.96979	4794.48033	3975.9396	4819.11525	5481.2428	5652.68159	5161.38763	6596.41239	4414.0575	6539.43176	3886.92355	5686.95608	4131.06814	5701.73053	4599.67314	5855.41363	6295.14632	5233.72902	5743.35578	6680.00191	6194.78543	4990.65042	4848.26348	5383.99393	5337.58153
4500	4800	3594.6849	6644.48926	5771.38561	4552.77066	4310.41718	4216.31512	4327.84935	5175.13513	4886.98601	5066.77245	5826.20924	4270.57397	6718.86474	3970.19057	5628.91968	4428.3206	5599.21717	4618.44901	5662.15039	5420.24543	4152.33173	5538.87166	6720.7528	5466.46108	5280.69742	5326.18501	3926.02248	3918.84615
4800	5100	4269.8652	5275.80601	4769.97184	5042.39284	4760.93562	4412.90683	3956.65448	4605.95802	4634.47356	5056.43919	6055.83371	6035.8306	6542.33933	4908.92995	5431.56899	5077.64899	5404.31378	4949.5154	5583.38297	6125.81758	3982.01749	5192.82044	4838.24684	5354.68925	4991.48462	5037.72138	4402.41276	3588.76908
5100	5400	5555.49554	5381.68372	5922.62201	4925.7736	4508.65524	4722.4	4951.44662	3754.71348	5168.95187	4888.74026	5120.36257	5877.57346	5878.26901	5392.88347	5352.19229	5182.12738	5382.68458	4978.21547	5316.54117	4325.1051	3760.10478	5708.72247	7141.72399	6425.33198	4975.74238	5192.89995	5220.58662	3846.06367
