frame_start	frame_end	parasubiculum	HATA	fimbria	hippocampal_fissure	HP_tail	presubiculum-head	presubiculum-body	subiculum-head	subiculum-body	CA1-head	CA1-body	CA3-head	CA3-body	CA4-head	CA4-body	GC-ML-DG-head	GC-ML-DG-body	molecular_layer_HP-head	molecular_layer_HP-body	Lateral-nucleus	Basal-nucleus	Central-nucleus	Medial-nucleus	Cortical-nucleus	Accessory-Basal-nucleus	Corticoamygdaloid-transitio	Anterior-amygdaloid-area-AAA	Paralaminar-nucleus
0	30	109.93648	40.10413	17.96876	36.53999	64.97774	137.58862	27.66677	94.69611	25.71109	98.10529	53.26521	23.31838	19.13078	33.68015	17.38434	53.33651	22.9191	96.79282	27.48614	97.29784	90.11434	23.94104	36.4557	54.59693	38.92567	60.43834	365.86719	108.51255
30	60	6676.46739	5524.56402	4614.0063	4511.57892	5136.09814	5820.99353	5858.87108	4063.99823	4323.10432	4322.32091	2709.33607	4965.33419	3837.27119	3966.64659	4233.47328	4096.56576	4243.8237	4311.65425	4136.76622	2735.04429	4162.41482	3904.16972	5171.52191	4474.95684	4559.55791	5450.0276	6960.88103	3621.92303
60	90	14460.9363	14140.39483	16257.97439	13052.35777	14514.7472	13947.22737	15506.26021	12928.1021	12474.30478	12709.50011	10404.62656	15263.02642	15360.92053	13675.83549	13928.05219	13528.37054	13595.69743	13040.73048	13420.55092	12257.17109	14732.6306	14289.03243	14260.78052	13596.18533	14842.20423	14595.84639	14937.42437	14212.0276
90	120	22388.16741	21434.74482	28468.15135	24551.12721	25436.20767	25530.32557	27488.62697	23721.26548	25148.38833	21847.46621	20933.37375	22133.57897	25706.94832	20961.07466	26747.13654	21545.64468	26515.54153	22938.48183	25543.42102	22392.49363	24212.37117	23391.04729	20689.28809	23775.32118	23113.77676	21979.34497	28405.474	21159.15033
120	150	32790.63553	26681.36696	41065.16164	34503.81197	36494.40289	35793.89107	34295.16663	35744.75646	35737.81982	33696.19782	30799.77888	32807.95584	36722.04692	33486.82578	37270.83659	33342.70536	37506.16207	35114.69022	35760.73028	35086.64249	37808.85371	32881.4928	30716.79297	31936.17969	36392.22018	31096.00494	38145.02276	34846.83613
150	180	35043.72935	29164.47438	43025.14079	39136.86303	37815.99577	37599.26946	36108.11229	38187.51777	41162.9767	36350.089	37901.79349	39252.07843	42699.32637	39118.05531	44306.63649	37628.68783	43183.53545	39218.42337	41521.37469	35665.74688	36182.7611	38644.67825	35445.00977	36151.62478	35654.62267	31860.22415	41908.70824	33344.42937
180	240	37684.87141	34099.98344	46002.61488	42515.93115	42140.61944	44639.52621	38424.71736	40988.69761	44578.60169	39901.87955	39129.69885	42025.68022	44232.68372	42763.06099	45880.04876	41966.31258	44995.54702	42341.48219	43251.07184	40030.43309	39793.79465	39398.38446	35859.13281	35840.2283	37917.29026	32007.19078	41632.56492	37562.80299
240	300	36526.60596	32920.4428	46032.50858	39873.89273	40249.80485	43477.68658	38160.23335	40250.15095	41652.88067	39073.48604	37330.57033	41390.71793	42086.3868	42861.94398	42978.77581	41724.62032	43188.77173	42183.74759	41185.31927	41937.56888	41082.44682	37515.42938	34363.16602	32390.16699	37469.64279	31839.20409	40546.59119	39059.32819
300	360	33769.03181	34144.61261	42949.58962	41350.2225	40893.44409	42024.60445	36354.42842	42746.51771	43954.05199	39614.87586	38544.03733	42981.60185	39192.35461	44130.98901	42999.50241	42226.72238	42792.61628	42956.37009	40739.9042	42322.71658	41302.80989	37924.58964	34401.88379	37858.77756	39170.92848	34312.56889	41147.25337	40823.69065
360	480	33667.6379	29265.7841	39208.59397	37780.21378	36368.4945	41000.48312	34450.23017	40991.05231	39590.50256	37267.45477	33530.33787	38474.58968	35194.55355	40657.96462	38629.3124	39501.32741	38302.45923	40771.00384	36674.88	39498.01281	37207.6114	35743.89289	31478.41602	33580.06695	35856.98412	29461.3083	36907.51461	36696.56187
480	600	29596.68659	28365.11009	34329.93434	32885.08743	33537.71924	34662.62188	29899.1757	34919.67055	35983.9114	32064.44381	31431.25378	31054.75419	31564.83838	32972.7731	34775.09105	32328.00874	34257.37086	33994.78025	33027.22494	35385.16161	33781.60524	32279.6322	28795.34033	30612.84375	31558.5752	27514.10183	35357.31506	32846.56508
600	900	24263.27651	24606.49647	29788.43844	29014.6542	26645.2021	29616.8947	27074.89057	31439.42488	31163.32613	28437.74224	28624.20397	26514.26488	28090.70031	29447.78048	30185.05148	28992.96592	30080.67728	30222.69098	29340.51994	31690.02073	29458.22341	27941.44038	24597.04443	26120.83095	27246.89736	24127.59972	28452.24818	29008.50888
900	1200	19985.51048	21174.04862	24116.49175	23374.79473	21613.78673	24308.57541	22416.61065	26134.21897	24595.82711	22998.45308	22506.4421	22538.92079	22828.68759	23639.47126	23462.15353	23409.74325	23598.52501	24361.17119	23285.51733	25917.30841	23241.77451	24068.80222	21908.27637	23248.55675	22356.61027	19588.69739	24262.93595	22755.16765
1200	1500	16480.54768	18379.17698	19881.12494	18763.68428	17970.41982	19990.45869	18390.00371	21176.8573	19994.77036	18797.80712	18423.04513	18915.05099	18895.9085	19229.314	18754.22677	19274.3775	18985.61779	19478.98624	18791.31265	21862.51538	19228.50795	20020.26686	19132.02637	19216.40896	18614.95423	17141.482	20964.63564	18487.26162
1500	1800	15065.37615	16218.43262	18651.8159	16579.28367	16243.2156	17529.39209	15730.84608	19012.31679	17829.02927	16685.9515	16727.48181	16216.22154	17640.05301	16032.96025	17415.5113	16182.22047	17439.25076	17382.05772	17048.38396	19851.815	16150.26619	18692.7023	18213.66016	18421.61209	16803.93018	15296.56479	16360.65554	16214.31118
1800	2100	13518.32584	16486.23813	17072.12853	14590.7195	14003.07482	14752.84272	14958.5975	15484.2023	16054.19308	14454.6162	16049.35092	13737.89658	16488.045	13840.90374	15445.55898	13866.36375	15831.26634	14458.87825	15771.68557	17165.75799	15101.73208	17421.17773	16687.84058	18237.54715	16069.23997	15630.34957	14901.25414	14324.12289
2100	2400	10785.62945	13782.21689	14895.7837	13228.60009	12899.66165	12637.24345	14128.32669	14162.80279	14135.29904	12765.90546	14225.47236	13017.0591	15165.60718	12575.9893	13925.55955	12642.09653	14115.67274	12790.80956	14276.45024	15406.01282	12770.60532	15619.62999	15625.10889	15835.62397	13762.68956	12981.55606	12478.43282	12038.61008
2400	2700	11204.05545	14025.59242	13997.03242	11424.21545	12030.41102	11537.99133	12189.31995	11965.91136	12618.22721	11261.13324	12681.2895	11499.6964	13116.72945	10446.45256	12290.40486	10854.53705	12624.41661	11035.2401	12523.92983	12539.52431	9915.04071	12974.8143	14443.04785	13506.45871	11508.81096	11517.05671	11091.93423	9838.38752
2700	3000	9709.80661	11040.94616	12682.50959	10969.84756	11494.83402	10973.28961	10727.81818	12047.64139	11286.94232	10763.17333	12612.71043	10380.25399	12891.49133	9840.23219	11602.86806	10316.39126	11793.66102	10675.41422	11809.20319	11365.07248	9239.44549	12187.57859	12961.18457	12443.52919	10104.34132	10545.87684	10355.66905	9573.33778
3000	3300	8939.1168	11201.35652	11943.20619	9665.3006	10932.70391	10353.11478	9637.20773	10323.00244	9853.23613	9222.93927	10656.69997	8951.05001	11640.78691	8466.24089	10327.50751	8994.36242	10376.82182	9147.35559	10407.30212	11118.09836	7922.0133	11106.52914	12937.37769	11692.36122	8658.56343	8704.57106	9441.92295	7972.08104
3300	3600	8048.94787	10602.04293	10550.15653	9420.33911	9017.43868	8981.59778	9090.76969	9508.56961	9543.55963	8793.91132	10929.9747	8952.89358	10747.84532	8323.28889	9477.72061	8621.84326	9647.81627	8712.68101	9850.51196	10718.73474	6823.20559	9105.66514	11035.56079	10280.2825	7814.15202	8538.93796	8298.04267	6965.68649
3600	3900	8588.9202	9458.64617	10008.39955	8749.62252	9125.45354	8587.44648	8739.63956	7973.08561	9073.06894	8287.14133	9490.79634	9098.36978	10441.61653	8225.99533	9014.81237	8346.82801	9233.06568	7967.98544	9318.60016	8967.20579	7792.64392	10224.56959	11019.66699	11309.79047	8879.43345	8654.82521	8232.02984	7161.4911
3900	4200	8278.43842	9981.81744	8927.05169	7971.27735	8208.14667	8530.77628	7728.46167	9387.25988	8201.04037	8282.71176	8792.04901	8327.9721	8988.41858	8008.281	7874.70761	8141.46765	7946.41917	8568.73055	8103.99864	9208.70393	6822.89837	10467.89505	10198.16284	10804.86854	8292.56201	8415.52514	7892.35658	6499.34309
4200	4500	7407.00216	9617.8549	8550.45049	7298.04586	8755.88806	6535.9968	6544.83571	7362.67643	7235.90591	7303.3679	8618.46519	7855.58231	9417.60105	6899.10585	8240.90189	7087.51865	8201.19413	6991.97093	8075.91504	9106.79644	6814.85972	7879.03467	9369.29309	9049.14776	7292.66456	7592.50063	8319.43546	6491.50416
4500	4800	5495.52209	7202.29955	7799.34818	7495.08677	7460.82106	6499.15083	6047.78715	7786.35043	7154.37808	7476.89548	9998.46365	7622.44578	9495.24552	7243.08716	8106.07512	7208.05499	8017.39804	7356.40802	8255.66336	8665.6903	6988.98701	8451.89086	8483.61096	7574.90373	7135.46887	5759.10455	8402.34483	6571.06871
4800	5100	6231.49108	6255.872	7770.78148	6274.22	7308.63092	5675.54637	6019.2735	5546.22248	6287.81008	6438.78324	7159.53545	5903.1538	8397.71542	5168.91763	7008.76178	5440.26785	6943.88322	5728.9725	6954.12915	7447.69913	6045.77588	6626.40684	6232.40051	6199.52148	6436.99029	6447.97676	6677.33668	4689.49665
5100	5400	4802.98849	7771.11145	7670.82129	6031.20054	7404.84935	5402.94652	6503.02487	7006.60922	6820.39318	6293.89722	6735.77042	5630.14807	8317.77613	5028.8625	7068.27645	5279.81418	6633.77722	5762.16126	6735.84125	6948.81203	5449.3006	8336.96672	8836.37476	8540.2079	7234.78464	7646.28345	6688.03573	5275.12443
