frame_start	frame_end	Left-Cerebral-White-Matter	Left-Cerebellum-White-Matter	Left-Cerebellum-Cortex	Left-Thalamus	Left-Caudate	Left-Putamen	Left-Pallidum	Brain-Stem	Left-Hippocampus	Left-Amygdala	CSF	Left-Accumbens-area	Left-VentralDC	Left-choroid-plexus	Right-Cerebral-White-Matter	Right-Cerebellum-White-Matter	Right-Cerebellum-Cortex	Right-Thalamus	Right-Caudate	Right-Putamen	Right-Pallidum	Right-Hippocampus	Right-Amygdala	Right-Accumbens-area	Right-VentralDC	Right-choroid-plexus	AirCavity	Skull	Vermis	Pons	CSF-ExtraCerebral	Head-ExtraCerebral	ctx-lh-bankssts	ctx-lh-caudalanteriorcingulate	ctx-lh-caudalmiddlefrontal	ctx-lh-cuneus	ctx-lh-entorhinal	ctx-lh-fusiform	ctx-lh-inferiorparietal	ctx-lh-inferiortemporal	ctx-lh-isthmuscingulate	ctx-lh-lateraloccipital	ctx-lh-lateralorbitofrontal	ctx-lh-lingual	ctx-lh-medialorbitofrontal	ctx-lh-middletemporal	ctx-lh-parahippocampal	ctx-lh-paracentral	ctx-lh-parsopercularis	ctx-lh-parsorbitalis	ctx-lh-parstriangularis	ctx-lh-pericalcarine	ctx-lh-postcentral	ctx-lh-posteriorcingulate	ctx-lh-precentral	ctx-lh-precuneus	ctx-lh-rostralanteriorcingulate	ctx-lh-rostralmiddlefrontal	ctx-lh-superiorfrontal	ctx-lh-superiorparietal	ctx-lh-superiortemporal	ctx-lh-supramarginal	ctx-lh-frontalpole	ctx-lh-temporalpole	ctx-lh-transversetemporal	ctx-lh-insula	ctx-rh-bankssts	ctx-rh-caudalanteriorcingulate	ctx-rh-caudalmiddlefrontal	ctx-rh-cuneus	ctx-rh-entorhinal	ctx-rh-fusiform	ctx-rh-inferiorparietal	ctx-rh-inferiortemporal	ctx-rh-isthmuscingulate	ctx-rh-lateraloccipital	ctx-rh-lateralorbitofrontal	ctx-rh-lingual	ctx-rh-medialorbitofrontal	ctx-rh-middletemporal	ctx-rh-parahippocampal	ctx-rh-paracentral	ctx-rh-parsopercularis	ctx-rh-parsorbitalis	ctx-rh-parstriangularis	ctx-rh-pericalcarine	ctx-rh-postcentral	ctx-rh-posteriorcingulate	ctx-rh-precentral	ctx-rh-precuneus	ctx-rh-rostralanteriorcingulate	ctx-rh-rostralmiddlefrontal	ctx-rh-superiorfrontal	ctx-rh-superiorparietal	ctx-rh-superiortemporal	ctx-rh-supramarginal	ctx-rh-frontalpole	ctx-rh-temporalpole	ctx-rh-transversetemporal	ctx-rh-insula
0	30	33.198951721191406	65.55918884277344	19.86614227294922	68.89285278320312	24.493494033813477	58.363258361816406	30.74081802368164	35.902732849121094	80.67869567871094	359.5471496582031	97.8973159790039	156.61268615722656	98.4644775390625	-270.5214538574219	34.685943603515625	42.020477294921875	44.867515563964844	19.110328674316406	7.219183444976807	108.63818359375	34.60418701171875	66.43701171875	196.38128662109375	222.8098907470703	7.10991096496582	-204.09959411621094	15.451898574829102	17.18573760986328	57.90643310546875	86.11138153076172	111.77519226074219	23.625350952148438	26.32404899597168	113.51641845703125	29.937814712524414	95.51464080810547	116.37548828125	70.26341247558594	-27.961458206176758	9.904278755187988	146.30455017089844	12.917725563049316	159.8506622314453	26.26236915588379	214.44375610351562	32.05287551879883	140.7207489013672	-31.043922424316406	132.385009765625	63.86870574951172	37.872779846191406	268.6615905761719	-4.081884860992432	-11.01053524017334	47.767478942871094	61.93864059448242	115.0557632446289	47.766197204589844	93.63204956054688	-49.29702377319336	82.03267669677734	97.3515853881836	52.59550476074219	-10.0958251953125	68.468505859375	169.16134643554688	64.97801971435547	55.51731872558594	18.940719604492188	-63.90803146362305	79.32689666748047	28.125011444091797	50.173980712890625	13.389537811279297	119.5175552368164	-43.99085998535156	167.82061767578125	4.88101053237915	209.31927490234375	35.700927734375	-14.259703636169434	-6.077392578125	-31.538814544677734	61.88190460205078	22.364830017089844	123.93307495117188	62.921730041503906	140.71072387695312	34.81528854370117	84.16231536865234	36.837257385253906	51.50057601928711	57.15816879272461	-57.03672409057617	132.13320922851562	83.51152038574219	368.1925354003906	28.775264739990234	362.665771484375	259.7773132324219
30	60	1473.9876708984375	2816.45947265625	6458.52783203125	7575.4873046875	8253.71875	9207.7431640625	3800.021484375	4469.05029296875	7057.10205078125	4243.25390625	2481.69482421875	9792.3583984375	7176.7998046875	23089.267578125	1741.2791748046875	3213.832275390625	6428.7255859375	7327.3388671875	9025.58203125	8708.392578125	5120.8095703125	5394.88623046875	3539.91650390625	8746.123046875	5205.2587890625	20634.572265625	508.7057189941406	943.1449584960938	6802.4677734375	4498.375	5248.77001953125	1228.79345703125	10990.46875	10862.888671875	11106.1748046875	14335.1142578125	5849.0712890625	7551.44677734375	8860.7275390625	6615.5419921875	9708.9833984375	10133.966796875	10681.58203125	11941.197265625	10396.05859375	7827.1748046875	4856.025390625	8364.0009765625	12346.34765625	7386.8876953125	11268.22265625	17778.708984375	9352.2119140625	10864.3046875	8889.5556640625	9317.3896484375	14076.2490234375	10943.2275390625	10035.078125	7861.11328125	8142.830078125	10675.5146484375	8690.294921875	3774.1298828125	14662.1884765625	10346.0498046875	11010.759765625	7745.6123046875	9751.353515625	12775.5732421875	5240.423828125	7064.75537109375	7609.884765625	5393.86181640625	11840.384765625	8999.4775390625	10338.2724609375	10555.41796875	8692.0888671875	6469.08056640625	6889.95263671875	7319.5107421875	9316.3896484375	5851.49267578125	10128.412109375	16537.38671875	8210.2919921875	9771.826171875	8027.7919921875	8944.572265625	8297.7509765625	10012.515625	8550.732421875	6602.90869140625	7160.51513671875	8771.7275390625	10422.6708984375	4313.85009765625	16238.2490234375	10872.4296875
60	90	4726.60546875	9764.20703125	20905.8046875	23407.0078125	27838.650390625	28561.611328125	11919.017578125	13747.693359375	19508.630859375	16721.66015625	6293.15087890625	20814.033203125	15949.1123046875	61216.984375	5385.53515625	10998.1689453125	20533.837890625	22461.3203125	29550.291015625	28844.455078125	12714.83984375	17380.388671875	15311.2734375	22703.001953125	16317.7744140625	36433.0	1694.3253173828125	2843.361328125	20139.873046875	14021.0771484375	9247.28515625	3989.906494140625	29209.013671875	27927.146484375	35300.8203125	39007.9375	18469.1171875	23265.078125	28646.705078125	23176.18359375	34637.29296875	29140.818359375	30835.97265625	35161.6171875	30339.302734375	25379.830078125	16105.3779296875	31589.95703125	34341.0703125	24734.560546875	34912.94921875	57236.4921875	30389.552734375	30371.078125	31371.5234375	31227.48046875	31087.205078125	36261.0625	32044.7890625	27917.740234375	24186.888671875	31310.16796875	35033.4921875	15940.982421875	43902.85546875	26943.572265625	34533.53515625	20385.951171875	33872.51171875	40724.1484375	17840.17578125	20985.072265625	26629.05859375	19675.4453125	31740.86328125	29760.068359375	29064.703125	32598.98828125	29393.763671875	22330.93359375	16159.07421875	23978.126953125	30995.23828125	22126.162109375	30038.625	46303.3359375	31355.5234375	31156.392578125	27534.86328125	31072.1328125	24275.693359375	32854.1328125	30748.14453125	26986.431640625	22629.501953125	27427.865234375	38116.85546875	17963.96484375	39125.01171875	26882.798828125
90	120	8003.5263671875	17954.10546875	36475.02734375	40920.0703125	52557.5078125	52569.19921875	20133.083984375	22506.302734375	32655.044921875	25705.791015625	8110.57861328125	44569.25	30887.431640625	105533.03125	8989.099609375	18319.548828125	35182.29296875	39284.48828125	53445.83984375	51670.4375	20614.435546875	29754.748046875	26466.8125	29641.93359375	28602.28515625	98665.515625	3255.9716796875	4682.13720703125	38793.69140625	26482.83203125	11964.904296875	6587.39599609375	52329.72265625	41931.96484375	61743.86328125	67846.4765625	32723.720703125	44063.90625	51549.046875	41866.859375	58106.02734375	49660.8125	59221.69140625	61598.80859375	50896.6796875	46768.19921875	28114.263671875	54785.578125	61734.1953125	50232.453125	61712.99609375	100361.9921875	56186.07421875	56010.70703125	57521.390625	57244.5546875	44648.51171875	68022.5703125	58036.35546875	52345.3828125	44440.62890625	56041.4765625	69020.6796875	32654.4921875	66942.421875	43852.0703125	54384.5234375	42813.54296875	58870.25	65012.6015625	33264.109375	39495.15234375	48316.44140625	37739.73828125	54781.9140625	55317.4296875	53019.83203125	56992.89453125	58164.73046875	40222.1171875	32440.509765625	46337.0390625	55380.6484375	52198.83984375	57258.57421875	81965.875	54689.65234375	56856.53125	52341.6015625	57708.19140625	49225.9609375	61834.6015625	56610.7734375	49314.98046875	42957.0390625	51998.89453125	76839.6640625	34080.33203125	70315.84375	43409.609375
120	150	12363.7197265625	25658.380859375	53672.82421875	62568.89453125	73832.9609375	78504.3359375	26822.544921875	30888.7734375	47407.3828125	37623.05859375	5291.693359375	59501.578125	40919.94140625	122470.8359375	12404.4091796875	26663.162109375	50610.23828125	60712.8125	78246.4765625	80285.28125	22309.48046875	44087.4140625	43622.3515625	33305.49609375	41231.4765625	126086.3671875	5658.41552734375	6059.34375	52590.88671875	40032.37109375	13701.4736328125	9108.45703125	87066.1484375	69590.25	91411.796875	108463.2265625	46056.7734375	66394.0	74835.4296875	66714.4609375	86144.9765625	74959.6484375	86707.0234375	88778.4609375	73646.4921875	66894.875	43131.99609375	78542.9921875	90665.640625	87800.734375	86559.6015625	146623.3125	80468.5859375	82220.0234375	82984.96875	79817.546875	61843.7421875	99987.703125	82270.28125	79130.3984375	65117.93359375	80041.015625	113213.34375	54484.6640625	100165.4140625	64267.7109375	74383.5	67917.2578125	87736.1875	101692.890625	51992.640625	63997.359375	72923.8984375	60168.93359375	85353.09375	85018.4921875	78089.40625	77262.609375	87862.53125	63486.19921875	41491.71875	71029.65625	80986.7265625	93529.515625	87002.6640625	124654.984375	83787.8671875	81885.75	77166.984375	87473.71875	67497.015625	89910.890625	83258.546875	77365.390625	65405.55859375	76828.4453125	117517.90625	51785.08203125	102690.375	60636.05859375
150	180	13913.7978515625	29164.43359375	61466.5078125	71181.4140625	86767.8203125	93798.7734375	32396.86328125	35852.48828125	55398.3515625	39653.13671875	3031.23486328125	72744.4375	47470.765625	120786.390625	13735.2744140625	30453.46484375	57996.54296875	68887.140625	89150.203125	89239.265625	29359.4296875	49200.97265625	42809.43359375	47697.30859375	45512.50390625	165926.59375	4939.02734375	6978.98828125	72172.265625	45691.28515625	9727.7978515625	9774.4677734375	96489.1953125	79617.65625	102984.5859375	115064.421875	61831.61328125	73028.4375	88599.6875	75218.390625	95462.859375	87626.0234375	97046.828125	104707.1484375	79894.125	80419.8984375	47453.953125	89602.09375	104582.1328125	91324.3125	97680.671875	168096.359375	92611.6875	96319.046875	93653.1015625	91905.90625	71042.09375	113919.171875	94865.8671875	94592.796875	72965.3671875	93010.9140625	127585.8046875	64071.453125	118693.7890625	69463.046875	81518.8359375	73466.0	102271.0078125	116784.109375	46430.55078125	72617.796875	87628.2421875	71438.9375	95065.6953125	97062.734375	87686.71875	89731.9296875	96864.1640625	74800.015625	47793.6875	84545.6171875	92370.203125	101462.9375	99302.0703125	145265.890625	94474.203125	90665.8828125	88276.96875	104190.6953125	71198.125	103042.4609375	96178.1328125	92818.0703125	73606.3125	87431.5546875	128418.375	58516.8515625	107264.2578125	64273.1796875
180	240	15323.5439453125	31612.7578125	62845.78125	72418.0	92144.359375	93535.8359375	31478.546875	36901.74609375	52542.1484375	43140.41015625	3870.596923828125	75473.96875	48017.609375	129462.84375	15054.7958984375	31986.181640625	59571.84765625	71223.96875	94783.9453125	93164.90625	27574.654296875	54320.4375	46299.28515625	51292.48046875	47477.33203125	141384.546875	5391.89306640625	7105.59814453125	67341.4609375	46518.65625	8185.53125	10309.83203125	98381.9375	79101.8125	106319.46875	124717.5390625	60246.3984375	79147.8515625	90536.25	79520.9921875	95799.15625	88913.3828125	99761.546875	105107.453125	85822.046875	82620.8125	51130.23828125	91735.84375	103314.8984375	94874.8359375	99807.6953125	164515.921875	94781.34375	93726.8125	97823.3515625	93975.34375	70230.3515625	117528.4375	97053.15625	98905.0078125	76254.09375	94723.984375	129679.609375	64107.92578125	118421.3359375	75090.1484375	92644.4609375	78393.3984375	104827.5546875	115430.46875	52874.45703125	77414.734375	90870.6171875	74940.1484375	97233.1171875	101688.8515625	87576.765625	94341.2421875	99476.1796875	77946.625	53484.609375	86094.1796875	93557.203125	103923.09375	99718.21875	147359.078125	98834.5078125	97489.5546875	92433.34375	104186.2890625	72215.3828125	107591.703125	99476.390625	101011.515625	77473.21875	90842.8203125	131795.921875	59129.44921875	105139.4140625	68832.0625
240	300	16503.201171875	31761.51171875	61994.8125	71896.84375	86715.109375	92175.109375	33480.68359375	37223.08203125	52784.1015625	45946.01171875	2711.388671875	79413.4296875	48782.7421875	77631.265625	16176.0615234375	30736.275390625	59435.078125	71646.8046875	90525.7890625	92655.265625	31749.04296875	52112.86328125	49419.1015625	49146.03125	47817.66015625	107185.7734375	4837.49365234375	7466.21923828125	69035.2734375	45703.50390625	5256.15234375	10445.8564453125	95828.484375	81785.484375	102317.140625	118145.875	61943.67578125	77654.6171875	88086.5234375	80077.171875	85114.2109375	85881.765625	98086.4609375	101446.0078125	84041.140625	82113.59375	54656.44140625	92686.4453125	102323.4296875	99239.5625	95839.71875	157580.875	93214.65625	94934.0078125	95450.6875	93594.640625	71740.15625	113785.5	95609.28125	96537.890625	75419.5703125	93041.6484375	125749.5078125	67365.7421875	110505.96875	71683.2109375	87398.8984375	75117.71875	101256.40625	114329.7578125	53238.96875	75384.34375	90468.8515625	74119.359375	98388.2421875	100516.671875	86116.9296875	93765.5546875	91831.8203125	78311.6953125	51581.86328125	86432.875	89434.3359375	100483.515625	100405.59375	136147.265625	99756.578125	94621.2890625	90661.796875	103363.3046875	69901.0546875	104810.2265625	97620.5390625	97038.453125	76868.2265625	89139.1328125	132887.78125	60402.59375	105185.1171875	67945.5
300	360	16701.978515625	30603.0859375	59791.25390625	73160.375	86203.6796875	89218.7890625	34962.734375	36767.703125	52970.16015625	48170.19921875	1983.48876953125	86982.734375	46570.7265625	51962.13671875	16134.294921875	31704.3125	56588.015625	69496.3359375	86974.2578125	87668.828125	34713.4765625	52741.02734375	52902.61328125	51475.0625	46672.1328125	110226.3203125	4306.21533203125	7567.80517578125	65764.3671875	45449.2734375	4228.47412109375	10613.4990234375	89711.921875	78663.484375	97875.2734375	112244.78125	63960.43359375	75691.90625	83713.140625	76095.8671875	81765.578125	81078.5703125	91013.296875	96382.96875	78600.9921875	78194.453125	54195.44140625	88559.8046875	95685.78125	89573.2109375	88967.5625	141810.78125	88942.265625	85298.2421875	89013.3515625	87663.265625	67649.75	105555.7890625	90761.375	91282.28125	72629.203125	87067.0078125	116124.5078125	65975.328125	99647.390625	70674.0546875	80926.953125	71633.8828125	96078.2890625	105338.84375	54474.203125	73007.5546875	85829.53125	70298.09375	84408.8046875	94153.265625	81337.03125	87366.421875	93219.65625	74118.453125	49874.8125	79399.203125	87069.734375	97048.78125	92565.6328125	123590.140625	95508.25	88073.7421875	84953.2734375	97004.0234375	67246.671875	99746.0859375	91154.640625	93643.0703125	75283.265625	84569.484375	119902.734375	59488.3515625	90272.453125	66153.3515625
360	480	17630.609375	30406.60546875	53088.79296875	66101.09375	74341.3046875	79055.3046875	37598.55078125	35027.40625	45643.3671875	47320.20703125	35.05791473388672	66296.28125	46973.34765625	55559.25390625	17096.41015625	29845.28515625	51133.23828125	64593.07421875	77460.6484375	77401.5625	35004.58984375	47221.02734375	47722.22265625	49157.2890625	45151.33203125	74893.8515625	4374.1494140625	7893.71240234375	58996.83984375	41451.6953125	2959.474609375	10500.6982421875	77869.359375	69555.5859375	85906.0625	97980.1796875	57331.875	68287.03125	73713.453125	68484.3828125	75022.6484375	70608.9453125	80672.796875	83248.40625	73105.1015625	71348.5859375	53002.3046875	77424.03125	83199.15625	78183.515625	77204.65625	115892.28125	79374.75	77664.0390625	79911.0625	77781.28125	61933.66015625	93427.78125	79900.09375	81717.796875	64455.34765625	76891.7890625	104047.3125	62328.09765625	87705.5234375	64646.08203125	72217.8671875	66166.5625	82473.53125	92124.421875	52229.74609375	65540.34375	76466.59375	64364.1875	78002.296875	82379.359375	72613.46875	76895.5390625	81396.0234375	67509.0703125	50647.0546875	73933.90625	74107.59375	82666.234375	83072.3828125	104146.8671875	84316.71875	75647.953125	76097.5234375	85823.546875	62773.6171875	87199.828125	80706.5	83554.1640625	67958.546875	75065.859375	103903.890625	55868.4609375	79490.2578125	59982.2578125
480	600	17796.146484375	28998.552734375	45558.87109375	58964.3515625	63822.29296875	67569.7734375	35007.703125	33108.20703125	39846.72265625	46617.5703125	-3041.28564453125	68702.125	42887.20703125	42588.97265625	17759.45703125	29292.498046875	43996.76171875	57068.8671875	64829.9296875	66161.1171875	36690.6796875	38474.14453125	46176.73046875	49888.03515625	42599.90625	70784.5234375	3799.302001953125	8055.11376953125	46603.51171875	37864.8671875	831.6836547851562	10244.0341796875	66883.1640625	62607.65625	71486.34375	82488.8359375	55166.30078125	59249.12109375	62921.0703125	61071.6015625	63629.91796875	59346.31640625	69329.1796875	71328.9765625	62125.30078125	59470.9140625	47391.32421875	66546.9375	69243.484375	70413.4609375	65641.6015625	91135.1171875	66060.921875	65584.640625	66636.9140625	64974.31640625	53771.15234375	77834.7890625	67820.6953125	69194.953125	55489.4296875	64423.17578125	85452.0625	57801.9609375	69460.3828125	58334.16796875	60592.4296875	56870.60546875	67736.953125	76459.640625	48069.140625	58118.94921875	63797.98046875	55237.51171875	64432.2109375	68872.4453125	62353.9921875	66084.125	68606.171875	59045.63671875	46767.86328125	62811.28515625	61940.53515625	71115.9609375	69322.2109375	78112.4375	71581.375	62397.421875	65063.484375	70999.390625	52830.453125	74653.6171875	68486.7734375	71873.578125	58855.69140625	62638.51953125	89341.640625	51908.30859375	62019.71875	54081.32421875
600	900	18335.57421875	27400.455078125	34924.21484375	47728.734375	46024.7421875	50576.51953125	34147.08984375	29371.56640625	32003.955078125	39412.96484375	-2523.421875	50117.75	38779.2734375	16000.08984375	17904.951171875	27013.462890625	33830.19921875	46299.67578125	48364.19921875	49802.93359375	34953.86328125	33377.89453125	40171.4375	38267.62890625	37902.1484375	48219.8046875	2705.103515625	8070.29541015625	36993.23828125	33072.56640625	-123.55439758300781	10023.16796875	50199.015625	45165.8984375	52373.70703125	61411.83984375	47849.671875	47074.578125	46949.28515625	47869.0	48222.35546875	43185.49609375	52809.0234375	53197.359375	47674.01171875	46343.24609375	39533.078125	50798.96875	51923.57421875	51686.890625	48714.89453125	64854.33203125	50027.75	50173.59765625	50713.23046875	49017.59375	41775.28515625	58140.546875	51138.01171875	51900.73828125	44208.07421875	48511.515625	69062.0703125	48807.109375	50900.80078125	46783.87890625	46589.30078125	45736.27734375	51691.1171875	58494.40625	39149.671875	44412.43359375	48876.72265625	42569.99609375	50472.87109375	51025.53515625	47478.3828125	49628.3828125	51372.01171875	45919.3125	36534.44140625	46110.25390625	46810.9453125	52351.40234375	52131.64453125	56094.6640625	54761.33984375	49472.53515625	49839.3359375	54313.484375	43286.2890625	56677.16796875	52231.07421875	54242.5625	46195.98046875	47122.9140625	68413.078125	43380.65625	46112.0078125	44425.78515625
900	1200	18805.701171875	25046.388671875	24768.2109375	35870.72265625	30140.513671875	35116.18359375	32766.6171875	25370.203125	23826.015625	35739.25	-2162.196044921875	34155.90234375	32815.70703125	4097.37060546875	18253.833984375	24769.8359375	24742.9453125	34746.84765625	32406.978515625	35492.04296875	32288.916015625	25363.53515625	32934.52734375	30653.142578125	32191.529296875	31375.615234375	2211.481201171875	8343.18359375	26281.798828125	28430.84765625	-1226.119873046875	9701.384765625	37134.69140625	34076.90234375	37171.859375	45825.37890625	39558.08203125	35985.30078125	33381.42578125	36733.62890625	36524.0234375	30385.30859375	41148.83984375	38893.796875	35723.53515625	34343.82421875	31783.111328125	36622.9921875	38227.328125	38567.00390625	36952.0	43774.453125	35205.42578125	37081.39453125	37041.09375	36199.765625	32820.93359375	42450.765625	37540.29296875	38065.48828125	32897.125	35756.74609375	52933.17578125	37906.328125	35905.5703125	37079.15625	34369.71875	36453.90234375	37067.8046875	43709.96875	33912.8125	33712.31640625	36014.31640625	32942.98046875	39757.88671875	37667.41015625	36804.59765625	37837.91796875	38287.515625	34745.890625	29893.919921875	35617.46875	34760.2109375	40030.59765625	38851.75390625	38409.19921875	39814.71484375	37050.79296875	36568.890625	39877.6171875	31823.369140625	41617.015625	38497.8828125	39401.16015625	35319.89453125	34420.19140625	52337.03515625	33712.15234375	33242.7890625	34531.8359375
1200	1500	18693.1328125	22938.958984375	19472.17578125	27630.388671875	22066.783203125	25912.607421875	29195.830078125	21801.34375	18516.359375	29106.470703125	-1525.2811279296875	24126.3984375	29324.88671875	11283.8466796875	18227.40625	22737.8828125	19304.4453125	27850.73046875	23875.173828125	26808.75	28454.87109375	19054.16015625	28070.123046875	23037.52734375	29082.357421875	19906.11328125	1959.391845703125	8571.849609375	18941.3125	25734.380859375	-1904.822021484375	9609.001953125	29016.0546875	27484.859375	29789.408203125	37554.15234375	34391.1171875	30415.177734375	26993.39453125	31193.283203125	30755.54296875	23757.703125	34308.6328125	32086.86328125	28836.658203125	27237.73046875	26034.966796875	29789.806640625	30896.5078125	32147.505859375	29821.623046875	35337.0859375	28683.53125	30224.27734375	29355.06640625	29116.98828125	26637.490234375	34485.53125	30265.189453125	30542.3515625	26683.13671875	28603.740234375	41224.4140625	31315.2109375	31207.65234375	31000.283203125	29200.078125	29584.755859375	29643.451171875	38062.6015625	29239.517578125	27923.845703125	28627.01171875	27782.537109375	32898.9375	29989.314453125	31058.765625	31754.359375	31740.3359375	28955.990234375	25460.748046875	29013.64453125	28585.90234375	32992.2265625	31682.380859375	29949.48046875	31544.037109375	31661.80078125	29607.373046875	32691.06640625	27243.333984375	33969.37890625	31040.123046875	32169.892578125	28819.890625	28393.072265625	46862.0625	28629.92578125	33208.24609375	28954.859375
1500	1800	18369.841796875	21087.716796875	15715.103515625	22127.53515625	16726.66796875	20865.943359375	26635.052734375	19141.712890625	16016.2275390625	23435.716796875	-1077.1251220703125	14088.783203125	25633.62890625	11689.1513671875	17924.90625	20952.37109375	15605.904296875	22014.126953125	18609.091796875	21573.046875	25831.13671875	16382.2705078125	23973.970703125	12400.4658203125	24688.173828125	25570.970703125	1563.055908203125	8543.59765625	14806.966796875	22668.740234375	-1421.242431640625	9580.7294921875	24590.044921875	23325.861328125	24198.642578125	30666.41015625	29595.861328125	26398.478515625	22020.89453125	26479.580078125	28143.71484375	18917.6015625	29229.896484375	27346.634765625	25179.603515625	23590.859375	22593.0859375	23897.29296875	27293.50390625	26912.25	24646.412109375	30241.7109375	22603.4140625	24444.833984375	24174.728515625	24406.439453125	23031.1953125	28881.388671875	25064.126953125	25377.09375	22112.50390625	24220.271484375	36859.5390625	26668.935546875	26153.8515625	26873.568359375	24900.341796875	24342.359375	24795.68359375	30949.037109375	23946.916015625	23808.470703125	24263.046875	23502.478515625	28272.0	25171.130859375	25834.7734375	28022.140625	27114.216796875	24140.072265625	21875.419921875	22649.318359375	25478.4765625	27805.064453125	27073.7578125	25085.33984375	25997.88671875	27190.44140625	24267.6328125	27848.083984375	21917.69921875	28654.99609375	26339.046875	26153.64453125	24974.1015625	23478.85546875	38536.8203125	24050.509765625	25107.078125	24229.57421875
1800	2100	17872.064453125	19318.154296875	13715.8017578125	18362.23046875	13144.4697265625	17817.603515625	22426.048828125	16973.923828125	14126.392578125	21074.935546875	-49.019718170166016	12212.951171875	22900.048828125	8557.2177734375	17608.1484375	19683.353515625	13179.9833984375	18987.8828125	14868.8544921875	17969.42578125	21914.927734375	13699.9365234375	22050.359375	9890.3203125	22280.59375	19075.240234375	1179.58837890625	8694.1201171875	14364.490234375	20727.0859375	-706.117919921875	9246.5361328125	22894.234375	20188.05078125	20653.798828125	27009.328125	23954.638671875	24208.31640625	19031.505859375	24248.0	22095.095703125	16520.6015625	25375.89453125	24970.138671875	22375.80859375	20296.794921875	20149.80859375	20086.97265625	23740.5703125	25080.287109375	21199.892578125	26570.45703125	18817.4296875	22721.791015625	20418.255859375	21858.34765625	18209.642578125	24802.77734375	21451.9296875	21414.49609375	18443.875	21364.779296875	33107.83984375	23794.857421875	26067.482421875	23055.220703125	20195.962890625	22331.818359375	21255.80078125	27027.1328125	21282.6640625	21796.390625	21109.662109375	20265.55078125	26372.119140625	22443.2890625	23343.4375	24994.798828125	22623.638671875	21480.6953125	19016.65625	21578.771484375	21796.0625	25049.02734375	23100.9921875	22164.486328125	22042.07421875	22224.84765625	20000.560546875	24083.80078125	21305.646484375	24696.5078125	22387.8125	22576.927734375	21520.796875	20220.828125	33055.05078125	19567.24609375	26385.54296875	21623.74609375
2100	2400	17128.5703125	18052.09765625	11377.474609375	14676.166015625	10397.96875	14138.01953125	20958.505859375	14381.3134765625	12409.416015625	19447.4765625	800.4129028320312	9854.5302734375	19876.05859375	8076.69140625	16813.765625	18011.75390625	10980.8642578125	15583.162109375	11764.13671875	14718.068359375	19424.01953125	12327.6728515625	17974.474609375	6197.5732421875	19282.103515625	14181.6044921875	1538.4459228515625	8351.0791015625	13330.5947265625	19164.703125	-712.776123046875	9225.486328125	21252.541015625	16445.5625	18093.51171875	23846.98046875	20503.126953125	22442.5390625	17080.7890625	21883.248046875	20160.552734375	14265.97265625	23237.755859375	22496.267578125	19950.671875	17390.560546875	16746.8046875	17288.525390625	21193.26171875	21751.27734375	17770.326171875	24777.974609375	15988.373046875	19147.390625	17534.248046875	19376.35546875	17864.3671875	22139.94140625	19300.056640625	18739.66015625	16930.53125	18645.40625	30099.240234375	21547.265625	21617.791015625	21854.818359375	19350.509765625	20092.642578125	19315.38671875	25305.427734375	17852.431640625	19167.853515625	18801.517578125	18108.1640625	22656.263671875	20067.740234375	20645.669921875	23579.294921875	21260.6015625	19702.3984375	16262.64453125	18125.68359375	20012.34765625	22821.8671875	21653.671875	19680.95703125	19528.806640625	20380.85546875	17856.2890625	21538.693359375	15809.115234375	22710.400390625	19832.73046875	20413.25	19892.8828125	18381.05078125	30137.943359375	17014.896484375	22430.083984375	19141.7578125
2400	2700	16380.5390625	16273.48828125	9729.59765625	12780.7666015625	8559.2255859375	12167.1220703125	17682.1796875	12250.005859375	10392.4638671875	14234.71484375	1653.9603271484375	944.0101928710938	17524.564453125	5761.65966796875	16165.9482421875	16997.064453125	9336.3916015625	13069.3203125	9555.6953125	12491.7021484375	17438.734375	10487.8046875	13508.5625	2089.794189453125	17230.90625	11326.4814453125	1143.0238037109375	8179.08056640625	10028.0693359375	17266.6640625	-442.44854736328125	9038.0283203125	19557.7109375	12680.80078125	16331.0703125	21008.068359375	19061.720703125	21470.849609375	14923.20703125	19611.03125	17414.607421875	12974.48828125	21059.33203125	20478.88671875	17299.4296875	15487.453125	15681.8349609375	15066.302734375	19171.677734375	19561.140625	17121.400390625	21659.4765625	14045.0302734375	17039.583984375	15200.3154296875	17215.77734375	16354.4697265625	19699.298828125	16862.7109375	17290.654296875	14769.052734375	16940.134765625	27398.765625	19051.810546875	20749.861328125	19816.55859375	16850.58984375	19004.951171875	16962.3359375	23066.404296875	14084.3759765625	18549.005859375	16173.0908203125	15894.6826171875	20063.796875	17583.701171875	18766.724609375	21557.486328125	18883.12890625	17696.9609375	14998.7041015625	15632.869140625	18404.17578125	19983.59765625	19422.720703125	15857.3505859375	17253.109375	19038.775390625	15390.2138671875	18549.876953125	15002.7333984375	20223.654296875	18052.173828125	17767.724609375	17365.353515625	15775.87890625	25677.2265625	17512.18359375	20993.3359375	16412.533203125
