frame_start	frame_end	Left-Cerebral-White-Matter	Left-Cerebellum-White-Matter	Left-Cerebellum-Cortex	Left-Thalamus	Left-Caudate	Left-Putamen	Left-Pallidum	Brain-Stem	Left-Hippocampus	Left-Amygdala	CSF	Left-Accumbens-area	Left-VentralDC	Left-choroid-plexus	Right-Cerebral-White-Matter	Right-Cerebellum-White-Matter	Right-Cerebellum-Cortex	Right-Thalamus	Right-Caudate	Right-Putamen	Right-Pallidum	Right-Hippocampus	Right-Amygdala	Right-Accumbens-area	Right-VentralDC	Right-choroid-plexus	AirCavity	Skull	Vermis	Pons	CSF-ExtraCerebral	Head-ExtraCerebral	ctx-lh-bankssts	ctx-lh-caudalanteriorcingulate	ctx-lh-caudalmiddlefrontal	ctx-lh-cuneus	ctx-lh-entorhinal	ctx-lh-fusiform	ctx-lh-inferiorparietal	ctx-lh-inferiortemporal	ctx-lh-isthmuscingulate	ctx-lh-lateraloccipital	ctx-lh-lateralorbitofrontal	ctx-lh-lingual	ctx-lh-medialorbitofrontal	ctx-lh-middletemporal	ctx-lh-parahippocampal	ctx-lh-paracentral	ctx-lh-parsopercularis	ctx-lh-parsorbitalis	ctx-lh-parstriangularis	ctx-lh-pericalcarine	ctx-lh-postcentral	ctx-lh-posteriorcingulate	ctx-lh-precentral	ctx-lh-precuneus	ctx-lh-rostralanteriorcingulate	ctx-lh-rostralmiddlefrontal	ctx-lh-superiorfrontal	ctx-lh-superiorparietal	ctx-lh-superiortemporal	ctx-lh-supramarginal	ctx-lh-frontalpole	ctx-lh-temporalpole	ctx-lh-transversetemporal	ctx-lh-insula	ctx-rh-bankssts	ctx-rh-caudalanteriorcingulate	ctx-rh-caudalmiddlefrontal	ctx-rh-cuneus	ctx-rh-entorhinal	ctx-rh-fusiform	ctx-rh-inferiorparietal	ctx-rh-inferiortemporal	ctx-rh-isthmuscingulate	ctx-rh-lateraloccipital	ctx-rh-lateralorbitofrontal	ctx-rh-lingual	ctx-rh-medialorbitofrontal	ctx-rh-middletemporal	ctx-rh-parahippocampal	ctx-rh-paracentral	ctx-rh-parsopercularis	ctx-rh-parsorbitalis	ctx-rh-parstriangularis	ctx-rh-pericalcarine	ctx-rh-postcentral	ctx-rh-posteriorcingulate	ctx-rh-precentral	ctx-rh-precuneus	ctx-rh-rostralanteriorcingulate	ctx-rh-rostralmiddlefrontal	ctx-rh-superiorfrontal	ctx-rh-superiorparietal	ctx-rh-superiortemporal	ctx-rh-supramarginal	ctx-rh-frontalpole	ctx-rh-temporalpole	ctx-rh-transversetemporal	ctx-rh-insula
0	30	448.81591796875	475.0180358886719	563.8233032226562	684.2409057617188	514.030029296875	697.305419921875	507.1921081542969	531.5916137695312	780.0450439453125	482.89508056640625	366.22442626953125	792.4009399414062	652.744873046875	512.3286743164062	438.7505187988281	515.3294067382812	586.0453491210938	638.7073974609375	600.5458374023438	646.5745239257812	405.9952087402344	830.6112670898438	558.4056396484375	445.9060363769531	672.2772827148438	486.0979309082031	210.8468017578125	278.9176330566406	519.4634399414062	507.154296875	644.5258178710938	332.3397216796875	721.33349609375	698.3591918945312	746.1159057617188	724.1268310546875	792.0499877929688	673.1568603515625	532.8031616210938	584.0610961914062	794.4027709960938	555.2005615234375	647.066650390625	727.6448364257812	572.7005615234375	667.9331665039062	564.7077026367188	622.88916015625	716.6263427734375	635.6627807617188	747.2620849609375	811.6376953125	687.8572998046875	644.8872680664062	735.6761474609375	705.9412231445312	844.8013916015625	647.9848022460938	654.6386108398438	652.0133056640625	648.315673828125	674.1514892578125	668.0096435546875	600.3616943359375	983.6028442382812	807.3883666992188	569.28125	882.6548461914062	590.4716796875	685.7946166992188	869.3751220703125	564.2054443359375	626.3823852539062	587.870849609375	747.9193115234375	582.033203125	595.870361328125	836.7017211914062	666.5724487304688	586.9832763671875	649.3461303710938	793.982177734375	679.5358276367188	641.954345703125	719.3572998046875	913.3394775390625	671.157470703125	797.5250854492188	659.9429321289062	696.3505249023438	815.3504028320312	659.7011108398438	667.2387084960938	664.2052001953125	683.7008666992188	671.0079956054688	440.9365539550781	490.95391845703125	895.0088500976562	861.0493774414062
30	60	3397.474853515625	3720.364501953125	5242.830078125	5097.11572265625	4177.14306640625	5761.521484375	4132.77294921875	3625.11181640625	4553.1220703125	3211.369873046875	2773.7197265625	5034.3251953125	3992.644287109375	3906.805908203125	3396.84326171875	3831.240478515625	5085.6298828125	4881.478515625	4487.5595703125	5460.73583984375	4008.5322265625	3996.90966796875	3633.033447265625	4820.49560546875	4372.9609375	3795.35400390625	1545.3570556640625	2088.34912109375	5476.57470703125	3781.33837890625	4272.85009765625	2586.92138671875	5305.96533203125	5549.9013671875	5728.78466796875	5979.35546875	4405.76806640625	4944.33203125	4597.580078125	4646.4541015625	5818.16162109375	4886.64501953125	5006.091796875	5522.46533203125	3808.722412109375	4626.38671875	5181.64697265625	5136.02734375	5387.6884765625	5027.91796875	5623.31103515625	6475.6044921875	4619.759765625	5566.25830078125	5100.6689453125	5938.09033203125	5793.8056640625	5149.8193359375	5207.66943359375	4868.71630859375	4588.62158203125	5293.474609375	3817.07177734375	3873.905517578125	6149.0166015625	5368.04638671875	4857.51416015625	5687.85498046875	5253.02783203125	6157.3408203125	4112.1259765625	4758.97802734375	4941.927734375	4414.84033203125	5202.47998046875	5136.1259765625	4536.5390625	5670.2177734375	4059.791259765625	4370.02392578125	4195.1025390625	5099.4853515625	5592.1630859375	5213.216796875	5146.900390625	7098.3916015625	4903.79638671875	5759.71240234375	4846.111328125	5596.40966796875	5730.31689453125	5159.01611328125	5273.03369140625	5068.24560546875	4567.13720703125	5278.29345703125	3853.599365234375	3928.349365234375	6619.34228515625	5223.9580078125
60	90	7191.96923828125	7548.99853515625	10736.458984375	11089.15625	9438.2548828125	11900.8115234375	8757.6884765625	7079.248046875	9074.822265625	6977.76123046875	5399.4931640625	10050.12890625	8126.80712890625	7799.69775390625	7061.80908203125	8117.9111328125	10472.103515625	10541.9560546875	8811.2060546875	10451.6259765625	7550.4130859375	8649.748046875	7526.15283203125	10041.8125	7660.8291015625	7663.21923828125	3033.299560546875	4067.51171875	11898.41796875	7507.44482421875	8330.2451171875	5166.02197265625	11162.046875	9898.7822265625	11511.7529296875	12849.814453125	9450.33984375	9877.7587890625	9664.6005859375	9019.5166015625	11023.205078125	9836.8994140625	10245.96484375	11487.1162109375	7773.73974609375	9641.5224609375	9868.919921875	10612.5390625	11227.1123046875	10031.4931640625	11288.6845703125	12491.833984375	10172.4892578125	12281.923828125	10997.75390625	12298.7822265625	11199.4521484375	10942.51171875	11064.142578125	10174.6767578125	9194.9814453125	10459.9130859375	7981.109375	8011.7861328125	13970.85546875	9720.7802734375	9863.0439453125	12423.451171875	11357.26171875	13051.6689453125	7857.92919921875	10041.9189453125	10197.8251953125	9654.5654296875	11419.3544921875	10353.951171875	9036.46484375	11686.775390625	8028.4189453125	9238.416015625	8032.15380859375	10599.9873046875	10709.599609375	10193.56640625	10877.2294921875	14409.701171875	9991.984375	11050.2724609375	10409.8759765625	12000.99609375	11589.0634765625	10747.158203125	11306.0673828125	10341.546875	9217.0341796875	10871.7216796875	8510.9912109375	8435.662109375	12638.142578125	9944.1689453125
90	120	11097.03125	12504.4072265625	16290.5185546875	16978.42578125	14028.2763671875	17297.45703125	12087.6884765625	10449.34765625	13822.5224609375	11745.98046875	8116.10791015625	16521.76171875	12159.57421875	9223.80859375	10937.4638671875	12419.5703125	16249.3330078125	16309.1435546875	14087.0810546875	17439.94921875	12775.828125	12601.2265625	11198.0634765625	15111.6640625	12076.03515625	9541.8173828125	4657.10791015625	6169.4169921875	16790.158203125	10989.9921875	12303.3486328125	7835.921875	16238.814453125	15705.83984375	18128.37890625	20284.17578125	14141.17578125	15519.05859375	15105.138671875	14950.697265625	16491.2421875	15512.935546875	15416.3076171875	17308.45703125	12303.2060546875	15129.3232421875	14890.9951171875	15146.8984375	16920.201171875	15766.4091796875	16991.087890625	19529.576171875	15675.7490234375	17883.7265625	16624.021484375	17754.51953125	16587.669921875	16663.134765625	16527.177734375	15736.1103515625	14317.2705078125	15910.712890625	11904.8720703125	12204.5224609375	20801.169921875	15527.3994140625	16211.3212890625	16962.1875	17259.630859375	20019.017578125	11427.2392578125	15301.552734375	16060.6943359375	15331.4931640625	17400.353515625	16011.328125	13847.40234375	17222.8515625	12773.3232421875	15095.7392578125	13594.1728515625	16357.1494140625	16303.2294921875	16262.9560546875	16708.359375	21427.71875	15591.4287109375	17554.4921875	15885.85546875	18403.353515625	17325.19140625	16712.5859375	16768.044921875	15868.4052734375	14148.0361328125	16623.224609375	13184.3505859375	12390.146484375	18242.41015625	14273.8662109375
120	150	13112.9892578125	14763.689453125	19106.8203125	19128.78515625	17636.541015625	21074.345703125	14699.0849609375	12114.58984375	15432.3466796875	12284.4765625	9223.1630859375	17812.83984375	13558.9931640625	10200.841796875	13034.67578125	14579.994140625	18707.173828125	19038.8359375	16343.8779296875	21757.798828125	14699.44140625	14986.462890625	12378.7841796875	14788.1142578125	13690.595703125	11959.44140625	5174.734375	6948.20068359375	20825.482421875	13512.3671875	13856.337890625	8951.119140625	19936.419921875	18268.150390625	20650.384765625	23652.076171875	15381.6669921875	18528.185546875	18428.720703125	17807.66015625	19763.98828125	18322.091796875	18126.005859375	20156.66796875	14343.7802734375	18421.470703125	17317.31640625	19548.109375	20079.974609375	19125.876953125	20861.244140625	24405.732421875	19154.876953125	20689.072265625	19556.970703125	21630.712890625	19791.10546875	19815.873046875	20032.234375	18552.16796875	16792.267578125	18549.6484375	13193.8427734375	13781.3935546875	21371.517578125	16898.33984375	19868.04296875	19607.1484375	21084.712890625	23176.453125	12563.802734375	18369.630859375	18961.451171875	18418.92578125	19230.11328125	18951.458984375	15916.1015625	20941.14453125	14251.1044921875	16917.009765625	15438.7548828125	18999.01171875	19404.16796875	18702.9375	19160.439453125	25303.08984375	18643.47265625	20429.68359375	18846.564453125	21528.337890625	20158.564453125	19718.826171875	19969.5625	19151.580078125	16581.05859375	19556.31640625	14942.2333984375	13899.06640625	20900.05078125	16257.513671875
150	180	13222.693359375	14556.15234375	18769.662109375	19683.2421875	17374.744140625	21537.400390625	14766.9033203125	11433.802734375	14730.29296875	12791.146484375	8841.50390625	19205.55078125	13842.6044921875	11050.87890625	13106.69921875	14114.259765625	18462.978515625	18631.853515625	16497.365234375	20598.96875	13939.345703125	14153.396484375	12554.892578125	16756.328125	13642.375	12133.333984375	5044.36962890625	6988.9150390625	20436.142578125	13324.5810546875	13562.0966796875	8987.6669921875	19847.783203125	19110.1328125	20982.126953125	22717.818359375	14200.685546875	17918.58203125	17928.283203125	17731.328125	19477.5390625	18175.576171875	17895.037109375	19328.29296875	13915.951171875	18299.1875	17968.26171875	19217.392578125	19964.28125	19438.908203125	20457.294921875	23660.865234375	18449.0234375	20165.17578125	19115.375	21787.26953125	18150.15625	19943.4609375	19766.453125	18562.669921875	17187.61328125	18500.720703125	13730.8330078125	13930.0546875	21977.943359375	17694.015625	18796.19921875	19397.83203125	20511.125	22609.958984375	12649.31640625	17732.158203125	19327.587890625	17899.82421875	19278.04296875	18905.755859375	15972.7392578125	19777.560546875	14591.50390625	17320.205078125	15666.6005859375	18238.671875	18996.97265625	18640.546875	18955.205078125	24197.240234375	18350.283203125	21217.84375	18532.220703125	21430.818359375	19269.337890625	19465.32421875	19959.763671875	19467.30078125	16345.5458984375	19471.658203125	16359.701171875	13861.5849609375	21127.990234375	16767.466796875
180	240	12981.599609375	13856.5029296875	18176.111328125	19474.74609375	16257.580078125	19749.001953125	14871.0380859375	11843.6572265625	14291.4677734375	13048.97265625	8464.16015625	18653.6484375	13384.3583984375	10215.6123046875	12817.341796875	14018.359375	17882.099609375	18617.119140625	15442.6943359375	19768.5	14058.3701171875	13491.1376953125	13379.9365234375	16497.255859375	14029.2734375	9609.5	4826.8408203125	6891.123046875	19887.87890625	13478.7841796875	12942.599609375	8822.384765625	18112.919921875	17711.4453125	20364.033203125	21398.09375	15008.5615234375	17627.56640625	18085.765625	17172.90234375	18112.609375	17452.095703125	17177.625	18780.029296875	13415.01953125	18022.3203125	16843.98828125	18899.580078125	19046.630859375	18287.884765625	19188.15625	22976.44921875	17734.001953125	19617.205078125	18782.73828125	20680.162109375	18647.751953125	19289.4453125	19358.083984375	17985.634765625	16524.615234375	17868.126953125	13107.849609375	13927.3232421875	21540.345703125	16637.287109375	18439.359375	18433.84375	19959.111328125	21591.705078125	12705.861328125	17493.796875	18297.47265625	17837.515625	18720.40625	18530.939453125	15271.4189453125	19000.501953125	13639.638671875	16919.828125	14612.6064453125	18558.2109375	18757.423828125	17706.298828125	18806.14453125	22819.484375	17752.99609375	19818.533203125	18314.134765625	20502.4140625	18603.4140625	18886.1796875	19027.169921875	18366.740234375	15852.55078125	18606.46484375	14769.8837890625	13322.7314453125	19520.748046875	15807.7392578125
240	300	12543.2919921875	13436.4921875	17171.865234375	18252.32421875	15638.99609375	20369.458984375	14697.671875	11476.4013671875	13695.6845703125	12488.62890625	7926.43310546875	15598.9912109375	13067.2666015625	9380.4169921875	12345.771484375	12922.328125	16984.990234375	16849.28515625	15248.2939453125	19083.9296875	13876.24609375	13388.6318359375	12278.9375	15730.689453125	13943.4150390625	8616.6943359375	4617.3857421875	6837.4423828125	18040.953125	12993.1240234375	12041.14453125	8678.4580078125	17489.888671875	17018.099609375	19031.880859375	20727.701171875	15036.646484375	17168.73046875	16634.9921875	16802.62109375	17559.373046875	16362.3720703125	16060.4697265625	17695.142578125	12628.3671875	17353.349609375	16051.66015625	17575.34765625	18036.705078125	17202.712890625	18211.73828125	21085.890625	16770.34765625	18679.583984375	17944.44921875	19293.537109375	17280.197265625	17998.681640625	18250.02734375	17247.736328125	15600.4580078125	17125.26171875	12009.4765625	13636.1806640625	19319.494140625	15724.341796875	17514.380859375	17011.701171875	18089.30859375	20024.126953125	12122.806640625	17052.19921875	17572.70703125	17354.607421875	17650.37890625	17037.271484375	14332.392578125	18149.109375	13410.544921875	16252.4501953125	14134.9853515625	17335.70703125	16798.52734375	16351.63671875	17926.0703125	20583.408203125	16387.66796875	18620.15234375	17008.111328125	19516.658203125	17706.130859375	17401.884765625	17928.0234375	17361.2265625	15098.267578125	17443.283203125	13728.7685546875	13091.58203125	17782.04296875	15225.5888671875
300	360	12075.65625	12790.75390625	15795.99609375	17092.58984375	14183.0107421875	19062.796875	14582.677734375	10654.9423828125	13206.0400390625	12787.7109375	7708.515625	17453.908203125	12548.93359375	8143.0673828125	11881.9931640625	13014.4521484375	15659.7841796875	16748.337890625	14554.8671875	18227.47265625	13219.0908203125	12862.7236328125	12149.2265625	14090.0107421875	13013.591796875	7460.29248046875	4526.716796875	6737.65087890625	16364.7705078125	12222.12890625	11204.525390625	8549.6220703125	16674.22265625	16067.486328125	17286.328125	18847.572265625	14641.8193359375	16293.421875	15675.1279296875	16409.724609375	16617.107421875	15385.6611328125	15346.283203125	16201.9482421875	11612.28125	16607.572265625	15892.3720703125	16329.7802734375	16664.85546875	16085.1455078125	16665.822265625	18290.041015625	15643.998046875	16571.74609375	16443.8046875	17787.25	15669.228515625	16874.458984375	17184.083984375	16254.3701171875	14862.3583984375	16100.1337890625	11037.66015625	13064.396484375	17797.80859375	15271.8291015625	15588.73046875	16485.078125	16821.1640625	18541.435546875	12009.28125	16411.779296875	16271.87109375	16361.5947265625	16837.763671875	16047.400390625	14018.6318359375	17255.455078125	12171.1982421875	15576.0234375	14049.08984375	16012.3349609375	15499.1083984375	15677.880859375	16637.177734375	18417.353515625	15359.345703125	16770.611328125	16176.0126953125	17827.291015625	16855.8203125	16304.25390625	16711.115234375	16075.6630859375	14422.185546875	15981.9365234375	12566.6240234375	12333.234375	16065.041015625	14575.3671875
360	480	11305.5771484375	12029.259765625	14209.4765625	16023.9404296875	12900.646484375	17057.35546875	13966.15625	10091.474609375	12547.380859375	12122.6787109375	7143.91845703125	14363.0263671875	12356.8173828125	7414.90283203125	11147.1630859375	11645.21875	14103.5126953125	15948.8896484375	12711.767578125	16647.796875	13369.904296875	11632.9052734375	11372.2275390625	14423.9677734375	11969.9658203125	7581.4189453125	4277.00244140625	6535.47998046875	14777.03125	11557.34765625	9993.572265625	8078.75830078125	14799.494140625	13991.4677734375	15133.5849609375	16765.05859375	13749.75	15128.125	13904.1591796875	15012.28515625	14654.0654296875	13695.5576171875	13714.10546875	14883.05078125	10510.44140625	15037.8203125	14906.8486328125	14579.7666015625	14747.0068359375	13972.1220703125	15124.2666015625	16472.693359375	13866.234375	15703.8232421875	14861.923828125	16065.9521484375	14435.763671875	15166.9765625	15034.4970703125	14262.2861328125	13694.48046875	14412.5322265625	10062.0712890625	12366.5537109375	16404.306640625	13908.59375	14826.6240234375	14861.109375	14890.49609375	16400.767578125	10946.4013671875	15142.1279296875	14774.6103515625	14924.4404296875	15080.185546875	14607.779296875	12313.0712890625	15089.3583984375	11012.6953125	14101.603515625	12607.4541015625	14609.708984375	14269.189453125	14271.4169921875	14754.0068359375	17057.951171875	13749.1591796875	15534.6953125	14358.39453125	15969.5966796875	14980.2041015625	14641.1962890625	14928.853515625	14433.1435546875	12980.66796875	14610.740234375	11662.9375	11663.8154296875	14309.8828125	13141.107421875
480	600	10373.001953125	10708.5361328125	12393.3623046875	14190.509765625	11290.701171875	14629.314453125	12357.4296875	9256.4658203125	11272.6396484375	10944.26171875	6451.56201171875	13594.330078125	11169.05859375	7211.91943359375	10183.3603515625	10692.8671875	12226.9443359375	13251.474609375	11323.9169921875	14132.2021484375	12290.1044921875	10453.5869140625	10450.8671875	12729.5771484375	11321.111328125	6844.68505859375	4170.982421875	6390.7509765625	12816.611328125	10736.158203125	8711.4248046875	7674.95654296875	12876.5390625	12824.515625	13179.240234375	14321.126953125	12148.8759765625	13309.3818359375	12236.19140625	13260.712890625	12382.5478515625	12185.134765625	12177.65625	12530.80859375	9214.958984375	13374.15625	12815.658203125	12704.609375	13142.865234375	12537.4638671875	13101.4541015625	13533.412109375	12003.8720703125	13471.189453125	12972.416015625	13796.3876953125	12793.646484375	13189.62890625	13005.1474609375	12386.673828125	12083.10546875	12262.115234375	8508.6689453125	11618.2744140625	13793.8095703125	12179.380859375	12687.8037109375	12794.763671875	13063.265625	14143.841796875	10497.8681640625	13359.470703125	12811.7802734375	13277.3212890625	12949.8515625	12709.3056640625	10699.58984375	12650.4775390625	9324.421875	12527.8759765625	10908.8046875	12348.03125	12010.6005859375	12367.806640625	12763.4619140625	13599.4169921875	11795.5009765625	13787.607421875	12488.2099609375	13780.43359375	13335.99609375	12674.0078125	12840.5087890625	12520.8408203125	11413.0654296875	12948.310546875	10289.66015625	10313.1708984375	12396.0390625	11726.392578125
600	900	9539.353515625	9731.7744140625	10130.6796875	12129.9765625	9633.89453125	12954.6005859375	11613.2314453125	8512.56640625	9814.751953125	10120.1513671875	5818.6552734375	11966.705078125	10560.158203125	6254.09130859375	9385.16796875	9700.732421875	9978.40234375	11742.177734375	9215.6962890625	12356.63671875	10851.9541015625	9423.25390625	9830.779296875	10353.703125	10235.7451171875	6274.35888671875	3899.90673828125	6322.84033203125	10638.5283203125	9696.212890625	7442.19775390625	7342.4404296875	10996.4375	11065.57421875	11117.3310546875	12250.41015625	10706.8369140625	11758.1455078125	10485.9794921875	11831.6005859375	10879.52734375	10614.927734375	10430.505859375	10821.3701171875	8085.2529296875	11623.4931640625	11372.2138671875	10944.5869140625	10925.775390625	10802.4931640625	11482.3564453125	11449.8212890625	10161.740234375	11555.171875	11031.958984375	11772.7001953125	10959.7080078125	11085.787109375	11093.267578125	10390.7021484375	10599.5048828125	10567.984375	7617.89697265625	10460.134765625	11505.3466796875	10780.958984375	10772.298828125	11119.806640625	10838.6416015625	11980.169921875	9455.2958984375	11829.6552734375	10755.5595703125	11644.5302734375	10954.541015625	11164.1494140625	9292.7451171875	10977.6904296875	8092.45166015625	10887.859375	10180.6181640625	10794.3271484375	10275.3701171875	10700.0732421875	11064.2529296875	11609.9462890625	9858.3642578125	11213.2255859375	10513.1748046875	11602.6796875	10976.9443359375	10614.7548828125	10853.1953125	10591.3798828125	9970.525390625	10837.2939453125	8684.9990234375	10078.369140625	10440.259765625	10300.5986328125
900	1200	8764.7607421875	8501.8603515625	8336.21484375	10104.2900390625	8247.486328125	10716.5234375	10957.740234375	7422.22021484375	8274.734375	8533.8173828125	5283.91552734375	9498.2548828125	9155.0390625	5909.56640625	8592.0244140625	8476.474609375	8147.2548828125	10062.916015625	7491.08837890625	10281.1982421875	10169.8115234375	7948.4052734375	8564.4326171875	9658.4521484375	9201.1572265625	5286.18310546875	3633.0078125	6297.25390625	8516.576171875	8759.6103515625	6436.02294921875	7068.1357421875	9784.666015625	9384.3330078125	9525.2109375	10076.212890625	9597.7919921875	10405.912109375	8808.3095703125	10446.8876953125	9240.9287109375	9116.6123046875	9132.5361328125	9085.9375	6794.67236328125	10254.5390625	10312.5693359375	9026.1279296875	9480.7255859375	9281.44921875	9729.5673828125	9806.083984375	8650.109375	10035.3310546875	9492.1220703125	9710.375	9204.4638671875	9526.7041015625	9467.2666015625	8798.2626953125	9248.1005859375	9006.8173828125	6472.35205078125	9107.724609375	9734.4521484375	9108.4501953125	9389.65625	9280.9833984375	9078.1025390625	10278.958984375	8414.580078125	10046.44921875	9073.3916015625	10187.2177734375	9433.3154296875	9702.4892578125	8052.0146484375	9255.869140625	6881.95166015625	9430.9306640625	8367.080078125	9026.7138671875	8721.7333984375	9258.2431640625	9401.873046875	10089.5302734375	8406.05078125	9602.9921875	9006.1552734375	9865.9501953125	9018.5029296875	9181.07421875	9297.4375	8992.7275390625	8578.8798828125	9174.4775390625	7289.8818359375	9075.998046875	9450.2216796875	8864.6513671875
1200	1500	8261.0703125	8052.283203125	7201.57373046875	8509.6376953125	6973.94677734375	9230.4501953125	9845.513671875	6560.46240234375	7518.03662109375	7753.4248046875	4842.9150390625	8601.0400390625	8128.828125	6107.6484375	8109.275390625	7733.2333984375	6993.5712890625	8488.8759765625	6339.0576171875	8896.013671875	9156.3994140625	7342.63916015625	7737.34326171875	7534.01025390625	8105.451171875	5370.10546875	3583.04345703125	6312.8359375	7321.322265625	8139.70947265625	5861.94921875	6921.8544921875	8686.296875	8457.33203125	8523.21484375	9173.4228515625	8813.51953125	9320.736328125	7902.1953125	9490.6357421875	8340.041015625	8253.5390625	8182.138671875	8301.814453125	6147.0185546875	9321.05859375	9282.533203125	8234.8662109375	8545.5947265625	8252.564453125	8931.1337890625	9083.67578125	7768.65625	8968.234375	8413.201171875	8762.01171875	8436.390625	8590.2197265625	8516.1689453125	7753.32275390625	8270.7080078125	8043.76416015625	5749.81591796875	8299.9970703125	8674.7890625	8278.8955078125	8814.845703125	8096.63134765625	8331.8212890625	9352.08984375	7446.318359375	9268.5888671875	8071.45556640625	9290.482421875	8526.240234375	8800.8193359375	7413.6826171875	8460.650390625	6268.5751953125	8287.447265625	7461.619140625	7978.7880859375	7944.9697265625	8090.37060546875	8561.306640625	9025.349609375	7399.85888671875	8531.6845703125	7783.24560546875	8919.91015625	8470.4296875	8193.2060546875	8237.0107421875	8055.7978515625	7605.060546875	8111.33154296875	6584.900390625	8100.5732421875	8043.966796875	7975.861328125
1500	1800	7900.99560546875	7156.83837890625	6408.83447265625	7830.3798828125	6135.39892578125	8209.4169921875	8438.34375	6033.9052734375	6568.73046875	6608.82080078125	4721.20361328125	6812.365234375	7488.12158203125	5541.46875	7755.68212890625	7018.2294921875	6266.0341796875	7483.33251953125	6220.2041015625	8009.42919921875	7832.94775390625	6338.306640625	6406.81103515625	7043.29443359375	7365.58837890625	4854.36181640625	3381.251220703125	6314.7724609375	6328.70751953125	7324.61767578125	5556.92529296875	6834.9091796875	7802.77490234375	7522.89208984375	7913.79345703125	8522.6044921875	8096.3759765625	8582.0693359375	7318.919921875	8856.2275390625	7846.21484375	7722.33154296875	7728.01025390625	7662.81689453125	5693.5283203125	8552.5859375	8133.21533203125	7705.85986328125	7799.42138671875	8024.265625	8053.9013671875	8023.7373046875	7180.4658203125	7914.22802734375	7811.67138671875	8340.6103515625	7701.3349609375	7938.64697265625	7712.00439453125	7225.69384765625	7683.3232421875	7497.5947265625	5147.67236328125	7682.9814453125	8050.45947265625	7849.59912109375	8046.7275390625	7394.25	7556.408203125	8524.9912109375	7503.06884765625	8583.998046875	7423.14404296875	8766.7607421875	8114.07080078125	8167.25732421875	6623.0888671875	7861.5322265625	6033.8544921875	7576.34814453125	6868.41162109375	7734.18896484375	7522.7412109375	7912.447265625	8013.57861328125	8576.0869140625	7100.7802734375	7903.4228515625	7319.533203125	8305.43359375	7625.482421875	7688.474609375	7667.9150390625	7342.62646484375	7073.92822265625	7547.6220703125	5821.6455078125	7393.64599609375	7393.77099609375	7345.49951171875
1800	2100	7588.9970703125	6699.87060546875	5739.8681640625	6773.51953125	5751.3681640625	7369.576171875	8216.4013671875	5370.57373046875	6016.70556640625	6487.439453125	4429.80078125	6738.09765625	6724.92724609375	5193.0791015625	7424.4462890625	6516.14599609375	5548.88232421875	6704.966796875	5324.64599609375	7283.61865234375	7482.4794921875	5680.251953125	6020.677734375	6335.30859375	6868.841796875	4949.818359375	3333.8720703125	6268.14453125	5671.283203125	6976.564453125	5254.02587890625	6666.92578125	7510.63916015625	6927.47705078125	7329.88037109375	7887.2490234375	7867.19873046875	8155.9921875	6962.7861328125	8530.1708984375	7301.88232421875	7312.1396484375	7152.2998046875	7414.07568359375	5253.6689453125	7961.56689453125	8247.49609375	6913.5390625	7534.20849609375	7595.84033203125	7747.3671875	7801.42138671875	6681.6357421875	7695.51416015625	7227.41162109375	7508.21630859375	6980.2734375	7428.98583984375	7219.193359375	6702.39013671875	7283.3720703125	7090.31494140625	4797.8974609375	7193.322265625	7543.97900390625	7195.64794921875	7642.5107421875	7174.783203125	7077.36376953125	7917.5810546875	6490.24609375	8063.2060546875	6885.1689453125	8187.6103515625	7506.64208984375	7614.66943359375	6501.02294921875	7344.78076171875	5895.53662109375	7213.55517578125	6288.1865234375	6808.36669921875	6974.57666015625	7233.34814453125	7443.27880859375	8358.625	6420.69091796875	7267.92822265625	6747.2255859375	7754.15576171875	7231.4541015625	7055.734375	7114.3271484375	6862.73486328125	6564.39208984375	7036.54345703125	5475.541015625	6866.1962890625	7011.04931640625	6663.09619140625
2100	2400	7287.72119140625	6146.138671875	5208.71142578125	6215.2841796875	5199.71533203125	6935.978515625	6898.4365234375	5180.67041015625	5714.9873046875	5535.8896484375	4136.48193359375	5791.140625	6284.09228515625	5453.62548828125	7122.52490234375	5942.1298828125	5079.79150390625	6149.7392578125	4974.83837890625	6466.67822265625	6558.2353515625	5614.88525390625	5466.25244140625	5853.5224609375	5904.26416015625	4751.2587890625	3237.060791015625	6225.125	5504.68017578125	6368.91943359375	5011.22119140625	6511.13330078125	6759.44384765625	6839.80615234375	6816.3779296875	7321.7734375	7497.595703125	7672.3017578125	6675.646484375	8216.2744140625	7051.037109375	6994.55615234375	6765.48046875	6983.24072265625	5146.64794921875	7561.9560546875	6960.916015625	6324.9453125	7011.18505859375	7182.3056640625	7463.7041015625	7288.564453125	6313.73779296875	6815.1376953125	6763.73876953125	7213.484375	6586.59033203125	7028.3291015625	6808.0068359375	6435.74267578125	6974.5869140625	6541.81298828125	4411.6123046875	6872.53955078125	6792.7734375	6782.86279296875	7303.63720703125	6684.71240234375	6534.77490234375	7577.04833984375	6591.59912109375	7737.30126953125	6698.49853515625	7779.751953125	6415.224609375	7408.6572265625	6143.46630859375	7111.1826171875	5323.0830078125	6775.98095703125	6207.7880859375	6496.8388671875	6385.8671875	6973.8916015625	7081.00146484375	7847.765625	6048.93115234375	6965.77685546875	6381.6826171875	7301.8173828125	6717.44189453125	6715.27734375	6681.896484375	6520.357421875	6237.02001953125	6671.98193359375	5226.07080078125	6435.9072265625	6622.69580078125	6418.74658203125
