frame_start	frame_end	Left-Cerebral-White-Matter	Left-Cerebellum-White-Matter	Left-Cerebellum-Cortex	Left-Thalamus	Left-Caudate	Left-Putamen	Left-Pallidum	Brain-Stem	Left-Hippocampus	Left-Amygdala	CSF	Left-Accumbens-area	Left-VentralDC	Left-choroid-plexus	Right-Cerebral-White-Matter	Right-Cerebellum-White-Matter	Right-Cerebellum-Cortex	Right-Thalamus	Right-Caudate	Right-Putamen	Right-Pallidum	Right-Hippocampus	Right-Amygdala	Right-Accumbens-area	Right-VentralDC	Right-choroid-plexus	AirCavity	Skull	Vermis	Pons	CSF-ExtraCerebral	Head-ExtraCerebral	ctx-lh-bankssts	ctx-lh-caudalanteriorcingulate	ctx-lh-caudalmiddlefrontal	ctx-lh-cuneus	ctx-lh-entorhinal	ctx-lh-fusiform	ctx-lh-inferiorparietal	ctx-lh-inferiortemporal	ctx-lh-isthmuscingulate	ctx-lh-lateraloccipital	ctx-lh-lateralorbitofrontal	ctx-lh-lingual	ctx-lh-medialorbitofrontal	ctx-lh-middletemporal	ctx-lh-parahippocampal	ctx-lh-paracentral	ctx-lh-parsopercularis	ctx-lh-parsorbitalis	ctx-lh-parstriangularis	ctx-lh-pericalcarine	ctx-lh-postcentral	ctx-lh-posteriorcingulate	ctx-lh-precentral	ctx-lh-precuneus	ctx-lh-rostralanteriorcingulate	ctx-lh-rostralmiddlefrontal	ctx-lh-superiorfrontal	ctx-lh-superiorparietal	ctx-lh-superiortemporal	ctx-lh-supramarginal	ctx-lh-frontalpole	ctx-lh-temporalpole	ctx-lh-transversetemporal	ctx-lh-insula	ctx-rh-bankssts	ctx-rh-caudalanteriorcingulate	ctx-rh-caudalmiddlefrontal	ctx-rh-cuneus	ctx-rh-entorhinal	ctx-rh-fusiform	ctx-rh-inferiorparietal	ctx-rh-inferiortemporal	ctx-rh-isthmuscingulate	ctx-rh-lateraloccipital	ctx-rh-lateralorbitofrontal	ctx-rh-lingual	ctx-rh-medialorbitofrontal	ctx-rh-middletemporal	ctx-rh-parahippocampal	ctx-rh-paracentral	ctx-rh-parsopercularis	ctx-rh-parsorbitalis	ctx-rh-parstriangularis	ctx-rh-pericalcarine	ctx-rh-postcentral	ctx-rh-posteriorcingulate	ctx-rh-precentral	ctx-rh-precuneus	ctx-rh-rostralanteriorcingulate	ctx-rh-rostralmiddlefrontal	ctx-rh-superiorfrontal	ctx-rh-superiorparietal	ctx-rh-superiortemporal	ctx-rh-supramarginal	ctx-rh-frontalpole	ctx-rh-temporalpole	ctx-rh-transversetemporal	ctx-rh-insula
0	30	186.29295349121094	132.69003295898438	133.58201599121094	139.17861938476562	184.467529296875	241.09255981445312	213.13404846191406	164.2044219970703	112.7938461303711	155.37942504882812	170.89694213867188	209.47003173828125	157.09982299804688	107.0899658203125	191.5532989501953	69.40499877929688	111.50395202636719	157.7363739013672	264.75347900390625	205.70347595214844	170.86546325683594	272.2875061035156	68.73875427246094	450.61932373046875	138.23854064941406	283.7086486816406	40.60734939575195	91.75202178955078	142.88951110839844	99.00379943847656	203.84205627441406	37.677207946777344	126.23291015625	176.7250518798828	261.95684814453125	252.5261993408203	107.6304702758789	175.5802459716797	209.57882690429688	96.11991882324219	148.74215698242188	158.02459716796875	178.9132537841797	164.194580078125	265.1414794921875	122.05962371826172	181.3957061767578	263.9302062988281	169.65936279296875	93.42247009277344	195.98570251464844	203.41847229003906	226.57376098632812	212.78683471679688	237.51315307617188	317.0546569824219	275.43914794921875	217.9201202392578	263.16107177734375	230.8760986328125	186.32904052734375	195.7417449951172	169.03872680664062	212.5406494140625	275.9959411621094	246.028564453125	193.9976348876953	109.47453308105469	233.26470947265625	259.5443115234375	328.89678955078125	95.14308166503906	180.7713623046875	116.40680694580078	192.1285858154297	204.8258819580078	142.63978576660156	157.01419067382812	242.42507934570312	98.23849487304688	143.90277099609375	319.21600341796875	231.0762481689453	44.42365646362305	179.90318298339844	225.96319580078125	245.14389038085938	169.90945434570312	220.28359985351562	202.79052734375	176.263427734375	206.4864959716797	246.4588623046875	204.0111083984375	159.98277282714844	278.3019714355469	192.4980926513672	91.87760925292969	267.5729064941406	294.2620849609375
30	60	5609.18017578125	5293.27490234375	6191.5439453125	6556.5908203125	5805.78955078125	7457.0166015625	5660.16845703125	5332.2509765625	6308.1162109375	6053.37158203125	6300.9912109375	7528.962890625	5010.27783203125	5317.4365234375	5607.345703125	5205.34716796875	6489.32958984375	6245.90966796875	6477.119140625	7559.966796875	6302.064453125	5949.0830078125	4406.81298828125	7681.1943359375	5933.056640625	6467.23974609375	1569.1202392578125	2930.22314453125	7443.18310546875	5336.037109375	6567.49267578125	1392.8936767578125	4936.740234375	4802.29736328125	6435.60986328125	9480.5615234375	5303.369140625	6753.54736328125	6297.49951171875	5308.35400390625	6558.80419921875	6479.52392578125	5512.43994140625	7557.173828125	6902.0283203125	5755.3017578125	6323.744140625	6929.29736328125	6623.14990234375	2996.909912109375	6273.216796875	7665.662109375	6533.9140625	6184.7607421875	6048.45947265625	8706.529296875	8194.2099609375	6451.25390625	6992.87646484375	6074.4453125	6480.609375	6967.11083984375	6079.765625	5816.30029296875	6381.3515625	6810.13427734375	5932.5595703125	4592.53857421875	6694.20849609375	8789.7802734375	6219.23583984375	6104.09521484375	6678.12548828125	5665.34228515625	5910.2294921875	7389.32421875	5893.79150390625	7288.84130859375	6527.6328125	5254.46826171875	4603.8916015625	7420.560546875	6732.15234375	3063.739501953125	5968.79443359375	7587.22509765625	6671.10693359375	5966.96240234375	6200.3447265625	7971.400390625	6740.41650390625	6703.36181640625	6625.56396484375	6265.5537109375	6448.9267578125	7026.11328125	4611.376953125	4350.06787109375	6113.693359375	6866.23583984375
60	90	14890.9560546875	15499.4716796875	17392.2109375	17144.279296875	17129.98828125	20240.47265625	15635.7568359375	13724.5595703125	15451.2626953125	13513.3681640625	17132.08984375	21038.60546875	12319.8974609375	15883.9482421875	14946.62109375	15087.9521484375	18151.109375	16255.625	17750.32421875	19754.23046875	15690.3046875	14924.3544921875	14645.3994140625	18037.607421875	13572.267578125	18264.93359375	3834.449462890625	7309.3662109375	21125.771484375	14519.4443359375	17247.662109375	3611.4765625	13515.8564453125	12481.353515625	17545.84375	23904.189453125	14763.2783203125	18789.548828125	16739.970703125	15297.439453125	16342.90625	16598.44140625	14054.7626953125	20063.05859375	17512.072265625	15983.8017578125	15243.8525390625	18552.529296875	18069.513671875	7726.994140625	17458.279296875	19707.255859375	17676.3984375	15066.46875	16541.505859375	22107.16796875	20910.576171875	17272.744140625	18159.294921875	16674.390625	17037.63671875	18015.1796875	14379.00390625	14018.55078125	15580.701171875	16890.966796875	16006.1875	10374.3681640625	18244.25	23459.30078125	15013.4765625	17103.185546875	18125.20703125	15270.81640625	14412.8388671875	19083.66796875	14658.455078125	19561.400390625	17322.169921875	14905.7294921875	14087.0732421875	19198.560546875	17807.728515625	8652.564453125	15731.18359375	19070.486328125	18268.91796875	16016.0263671875	16319.0771484375	21405.296875	17071.091796875	17974.8984375	18128.587890625	17144.90234375	16698.90234375	18284.779296875	11063.931640625	12295.23046875	15972.2861328125	16779.6640625
90	120	24775.154296875	23899.91015625	28700.0234375	30149.080078125	28607.099609375	33645.6796875	24151.71484375	21980.673828125	24681.7890625	27479.849609375	27495.26953125	29706.8984375	20158.20703125	27537.34765625	24728.21875	24137.1640625	29798.546875	27824.91015625	28356.640625	33155.8984375	26755.03125	24824.525390625	23895.9140625	29164.400390625	20552.603515625	27734.85546875	5961.9326171875	11603.4111328125	33687.68359375	25379.416015625	28429.734375	5743.2685546875	23325.90234375	20496.904296875	29240.478515625	40111.46484375	25134.755859375	31268.765625	27939.623046875	23748.71875	27143.17578125	27114.970703125	22540.373046875	33150.6484375	29290.658203125	26813.673828125	26689.640625	31801.279296875	29604.736328125	12720.6591796875	29335.2734375	33466.046875	29239.89453125	24972.896484375	26770.49609375	36235.9765625	35031.62109375	29133.490234375	30082.4609375	28115.3828125	28332.23828125	30040.701171875	24027.859375	24991.7890625	25460.908203125	28744.587890625	26787.169921875	17307.955078125	30016.80078125	38503.9375	21043.5	28116.439453125	30532.537109375	24723.396484375	25086.330078125	31093.5625	23871.044921875	32348.55078125	27775.7890625	24913.01953125	21293.4296875	32191.0625	30079.349609375	14101.1015625	26529.294921875	31722.427734375	29320.462890625	25671.66796875	26928.03515625	34865.58203125	28684.064453125	30583.375	29844.830078125	28230.798828125	27308.671875	29986.919921875	19571.45703125	19535.720703125	26546.7421875	28481.6640625
120	150	32357.66796875	31654.08203125	38449.55859375	38691.56640625	39249.6484375	43209.62890625	32878.8671875	29948.7265625	32082.857421875	34140.87890625	35944.8046875	31616.744140625	24402.85546875	35419.38671875	32233.05078125	31357.447265625	39570.515625	37763.6875	37359.46484375	44868.73828125	32052.345703125	34642.828125	27907.66796875	37977.9296875	25313.798828125	38813.3671875	8056.72509765625	15036.859375	48852.296875	33388.04296875	37068.3203125	7471.84814453125	29267.990234375	26692.12109375	38246.8125	51245.13671875	32508.064453125	42201.4765625	36803.77734375	31570.607421875	34515.828125	36262.0625	28224.7421875	43855.7734375	37418.28515625	35113.0859375	34256.73828125	40983.72265625	37503.96875	16875.033203125	38183.76953125	43948.89453125	38175.4921875	33036.09765625	35916.921875	47994.46875	43496.78125	38116.37890625	38863.03515625	36814.63671875	36940.55859375	40221.30078125	30993.896484375	30671.146484375	33893.48828125	36253.265625	35695.4375	23642.537109375	39145.546875	50835.3828125	26039.1796875	37657.5546875	39642.1328125	31281.80078125	30380.412109375	39724.08984375	30592.166015625	41118.8203125	35820.5234375	32391.072265625	27511.724609375	42346.38671875	38178.703125	18393.662109375	34377.140625	42851.50390625	38719.09765625	30936.578125	35341.875	45718.19921875	36249.0078125	39836.55859375	39124.86328125	37090.8984375	36650.00390625	39201.43359375	24376.046875	25403.376953125	34246.08203125	35642.73828125
150	180	34009.1328125	32649.951171875	40386.16796875	40163.9765625	41274.0078125	44457.0390625	34873.57421875	29652.578125	31023.26171875	38203.859375	38212.19140625	33619.40234375	23890.490234375	40470.63671875	33938.9453125	33134.203125	41596.2421875	38903.70703125	39950.82421875	44474.03515625	32926.1796875	33760.43359375	35678.515625	39894.58203125	25718.595703125	40802.8359375	8046.1259765625	15387.1826171875	51683.0234375	33539.84375	38533.58203125	7960.6689453125	31759.75	25565.73828125	39584.71484375	53467.515625	33822.3359375	43587.078125	39135.5546875	33398.2734375	35182.11328125	37771.74609375	29088.509765625	46233.38671875	37970.75390625	37038.76953125	36089.7265625	43510.9765625	38679.99609375	17714.185546875	39858.0546875	45535.859375	40014.0234375	33276.0703125	37046.5	48899.7265625	45327.84375	40042.36328125	40833.3515625	38561.36328125	38880.484375	41382.9140625	31852.80078125	33474.42578125	35854.015625	39368.38671875	37158.35546875	23518.724609375	41303.56640625	52837.66015625	26572.298828125	39683.84765625	41789.765625	31959.654296875	31695.92578125	39757.453125	30669.853515625	43179.203125	36394.67578125	34109.9296875	30843.140625	44266.33203125	38874.48046875	18942.998046875	36949.35546875	43175.6484375	40834.0078125	33231.75	37407.02734375	47885.3671875	36543.87890625	41361.42578125	41328.69140625	39081.7578125	37975.0078125	40917.05078125	24549.3359375	26163.369140625	35413.60546875	38252.73828125
180	240	32949.11328125	31596.607421875	39503.15234375	40170.6796875	39428.2890625	45133.578125	33034.5078125	29810.1953125	32065.6875	35472.86328125	36750.828125	32642.91015625	23514.90625	37539.5625	32969.36328125	32985.55859375	40730.94921875	38613.1328125	39062.02734375	44130.5625	35463.30859375	34306.15234375	31572.0625	35491.36328125	25842.369140625	40426.6015625	7736.966796875	14822.80078125	48861.44921875	33221.34765625	37129.23046875	7860.060546875	30399.603515625	27068.87890625	38753.390625	50493.48046875	32635.2734375	42236.375	38216.75390625	32408.099609375	34828.56640625	36170.46875	28453.74609375	44555.01171875	36705.08203125	36282.26171875	35148.94921875	41812.9609375	38117.1328125	18208.052734375	38663.484375	44362.42578125	38858.6171875	31904.85546875	36712.87890625	46777.5390625	44829.59765625	39316.72265625	39819.46875	37466.171875	37921.8125	40212.55078125	29598.1171875	32636.84765625	33989.70703125	37446.97265625	35504.02734375	24143.671875	40518.21484375	49949.41796875	25557.560546875	38744.39453125	40520.5546875	30689.912109375	30813.3984375	38194.11328125	30506.556640625	41473.875	35874.640625	33775.53125	28853.37109375	42207.203125	38201.3359375	18851.990234375	34211.67578125	41305.60546875	39666.1640625	31830.888671875	36414.9140625	46035.796875	37053.36328125	40290.67578125	39604.99609375	38567.234375	37078.43359375	40024.546875	25419.1015625	25514.271484375	34105.55078125	37124.265625
240	300	30628.853515625	29738.48828125	36731.91796875	38208.375	37056.625	41898.015625	31740.525390625	28364.912109375	28834.0703125	35553.18359375	34226.953125	30998.509765625	22676.056640625	36803.26171875	30637.599609375	30619.927734375	37626.046875	37153.3046875	37747.1484375	42231.65234375	32252.21875	33299.55078125	31073.97265625	32627.880859375	24615.58984375	35953.7109375	7402.96728515625	13773.2509765625	43819.3125	31776.490234375	34208.90234375	7560.21826171875	29858.224609375	26078.154296875	36005.84765625	44599.921875	32439.431640625	39059.515625	35188.45703125	30611.7890625	30670.251953125	32889.51171875	26903.587890625	41257.1640625	34561.0	33718.828125	32852.04296875	38232.3046875	35044.34375	16703.19921875	36454.25390625	40480.5234375	35934.69921875	29826.177734375	33869.78125	42996.390625	41483.27734375	36557.91015625	36851.42578125	34517.734375	34874.15625	36679.890625	29532.85546875	30611.900390625	31881.16796875	35563.046875	34071.203125	24231.5703125	37445.0859375	44643.37890625	25539.453125	36362.83984375	37480.58984375	29164.9609375	26850.8125	35440.80859375	28928.537109375	37879.91796875	33549.25	31569.294921875	27715.568359375	38463.109375	35426.1484375	18667.232421875	32249.111328125	38575.6328125	36408.12890625	29537.1171875	33568.1640625	41112.6328125	34936.52734375	37053.25	36675.82421875	35486.75390625	35020.75	36663.4453125	24390.92578125	25232.40625	31131.6328125	34823.37890625
300	360	28190.08203125	26817.080078125	34007.984375	37265.91015625	35264.6171875	40474.4765625	30987.875	25963.1484375	27414.95703125	32959.6796875	31569.58984375	29350.9765625	21815.619140625	33094.4296875	28240.673828125	28537.4296875	34673.25	35791.2265625	34661.23046875	39099.51953125	32297.4296875	29819.587890625	30402.685546875	32931.6484375	22672.53515625	34315.0625	7294.33544921875	12752.6708984375	38520.5078125	28350.552734375	31057.32421875	7474.02783203125	27725.55078125	24965.947265625	33094.359375	39139.21875	30710.69921875	35978.828125	32069.640625	28020.16796875	28562.396484375	29752.837890625	25081.732421875	36304.8125	32061.07421875	31231.5703125	31504.193359375	34937.57421875	32307.193359375	16954.98046875	32201.693359375	35787.671875	33100.30078125	28554.138671875	31327.4921875	37838.390625	37578.89453125	33192.62109375	33754.625	31860.611328125	32611.83203125	33589.5390625	26315.2734375	29017.84375	30590.587890625	33050.21484375	30200.892578125	22161.71484375	33924.140625	39972.44140625	22648.236328125	33418.6640625	34315.01171875	27040.755859375	24774.939453125	31191.533203125	26796.6171875	34017.72265625	31038.494140625	29066.0625	25211.16796875	34962.51953125	32579.921875	18188.28125	29555.560546875	33768.88671875	33018.65234375	27402.630859375	30847.89453125	37022.921875	32547.134765625	33760.32421875	33663.4765625	32180.634765625	31705.671875	33180.90625	22281.703125	24828.912109375	28577.609375	32322.9765625
360	480	24947.830078125	24736.2109375	30233.142578125	34072.04296875	29963.125	35019.046875	29181.24609375	24297.400390625	24297.466796875	29655.580078125	27094.890625	24810.755859375	20553.474609375	28337.86328125	24863.052734375	24700.37890625	30692.021484375	33667.38671875	30828.31640625	34731.31640625	29139.90625	26998.9453125	28555.123046875	31104.82421875	21160.62109375	29585.009765625	6874.5751953125	11370.876953125	33244.73046875	26002.673828125	26759.0859375	7205.16748046875	24993.05078125	23767.52734375	29426.46484375	32520.25	28363.232421875	30573.388671875	27653.3984375	25350.126953125	24577.662109375	25681.90234375	22838.990234375	31513.70703125	28153.052734375	27074.1328125	27816.275390625	29860.736328125	28566.015625	15587.3916015625	28008.650390625	30692.451171875	28589.08203125	24642.626953125	27869.673828125	32045.103515625	31805.6640625	28887.11328125	29547.494140625	27562.62109375	28546.708984375	28938.876953125	22281.83984375	26659.509765625	27840.634765625	30367.408203125	28274.84375	22355.732421875	29252.123046875	33017.9296875	22019.2421875	29019.359375	29186.912109375	24329.283203125	22754.482421875	26744.74609375	24122.630859375	29446.5546875	27287.09375	25909.673828125	22343.78125	30255.197265625	27940.388671875	17531.255859375	25909.291015625	29277.025390625	28729.8515625	24653.759765625	27511.61328125	31354.318359375	28880.01171875	28913.22265625	29471.478515625	28026.806640625	28004.880859375	28469.998046875	18875.7578125	22589.353515625	26790.48828125	28652.544921875
480	600	21451.2734375	21727.28515625	25656.8984375	30151.00390625	26136.3671875	30453.4765625	26164.8671875	22317.3828125	21749.419921875	28298.82421875	23313.521484375	24124.2265625	19267.7734375	25360.81640625	21397.615234375	21794.71484375	26284.990234375	30380.4609375	26378.05859375	29378.751953125	25796.462890625	24010.34375	25194.51953125	26901.1328125	18907.0	25058.11328125	6422.08544921875	10035.15625	28239.4609375	23323.572265625	22224.83984375	6933.51025390625	21841.369140625	20707.51171875	24990.15625	26142.3984375	25536.732421875	25113.01953125	22849.072265625	21585.921875	20333.6796875	21504.216796875	19435.78515625	25911.39453125	23926.78515625	22764.84375	24775.251953125	24826.865234375	23564.48046875	14027.0810546875	23513.939453125	25300.630859375	23636.189453125	20990.58984375	23561.529296875	26258.57421875	26881.748046875	24219.865234375	24746.861328125	22896.705078125	24001.90625	23817.47265625	18879.845703125	24107.54296875	23975.068359375	26071.4765625	23481.638671875	20083.23046875	24524.74609375	26462.376953125	20272.236328125	24423.630859375	24333.494140625	20987.6953125	19039.07421875	22258.826171875	20785.396484375	23880.396484375	22595.3671875	22226.546875	20260.328125	24572.193359375	23660.58203125	14921.6884765625	22001.62109375	23592.66796875	23943.69140625	21674.98828125	23256.732421875	25459.32421875	23862.62890625	24199.798828125	24716.93359375	23365.6875	23679.037109375	23380.87890625	15809.94921875	20426.466796875	22459.998046875	24952.287109375
600	900	17990.654296875	19042.5	21117.95703125	25808.748046875	21254.365234375	24699.07421875	23377.4921875	19745.009765625	17747.8046875	22975.27734375	18775.767578125	19039.818359375	17295.0078125	20644.830078125	17925.056640625	18567.900390625	21335.70703125	26053.78515625	21400.2890625	24207.728515625	23157.990234375	19846.0390625	21544.265625	20898.1171875	17260.8359375	20513.478515625	6090.9013671875	8782.677734375	21993.208984375	20411.091796875	17352.412109375	6892.3759765625	18405.611328125	18523.306640625	20270.5625	19704.2109375	20395.015625	19548.38671875	18310.1953125	17616.109375	16612.208984375	16838.8515625	15986.5361328125	19807.474609375	18772.021484375	18454.689453125	19953.5	19378.884765625	19162.81640625	11966.76171875	18643.8046875	19508.0078125	18753.0234375	18283.041015625	19137.140625	20241.1328125	20742.556640625	19321.880859375	19959.44140625	18272.736328125	19272.19140625	18847.23828125	14380.9638671875	19981.529296875	20094.130859375	21586.169921875	19460.9375	17740.369140625	19597.849609375	20097.720703125	16794.458984375	19335.947265625	19082.474609375	17112.962890625	16245.478515625	17552.884765625	16611.580078125	18602.830078125	18313.302734375	17939.3359375	16768.849609375	19272.611328125	18587.96484375	13168.1689453125	17031.21875	18708.27734375	18966.091796875	18039.494140625	18879.599609375	19950.947265625	19933.736328125	18927.361328125	19711.041015625	18743.306640625	18913.462890625	18431.453125	12374.1748046875	17145.814453125	18664.447265625	20484.384765625
900	1200	15707.958984375	17053.35546875	17678.2109375	21985.05078125	17167.853515625	20262.689453125	20120.13671875	17330.474609375	14919.064453125	17994.18359375	15053.5146484375	15431.1845703125	15912.60546875	16755.58984375	15665.8251953125	16845.90625	17518.6953125	22349.740234375	17525.697265625	19792.65234375	20394.4609375	16775.43359375	18398.2265625	17383.091796875	15533.650390625	16910.46484375	5952.28857421875	7914.3896484375	16869.69921875	17733.203125	13805.2373046875	7099.99658203125	16035.0185546875	16197.4375	16825.857421875	15877.896484375	17771.423828125	15438.80078125	14884.4521484375	14775.9951171875	14142.521484375	13704.5087890625	13650.55078125	15562.9189453125	15479.1943359375	15134.7275390625	15948.302734375	15447.0068359375	15644.171875	10891.533203125	14812.271484375	16082.6474609375	15157.7890625	15677.1220703125	16098.74609375	16228.193359375	16560.603515625	15843.0634765625	16451.1171875	15150.6298828125	15994.5009765625	15061.3388671875	11625.18359375	16861.62890625	17213.24609375	17821.462890625	15969.5068359375	16046.5166015625	15848.2568359375	16282.9609375	14663.6533203125	15481.21875	15466.296875	14530.41015625	14312.8642578125	14513.9296875	14007.6826171875	14751.390625	15379.251953125	15042.1728515625	13742.6533203125	15690.0078125	15442.33203125	11810.0166015625	14414.0771484375	15691.115234375	15297.4892578125	16362.470703125	15770.521484375	16057.4560546875	16113.9931640625	15361.265625	16305.341796875	15370.9365234375	15546.26171875	14930.15234375	10857.3466796875	15232.625	16260.330078125	17101.736328125
1200	1500	14691.85546875	16234.9560546875	16101.75390625	19014.212890625	14917.142578125	17786.333984375	19322.78515625	15822.8330078125	13666.419921875	16106.3115234375	13067.94140625	14692.5390625	15182.0107421875	14373.611328125	14653.25390625	16213.4970703125	15569.5263671875	19730.669921875	15351.591796875	17338.568359375	18753.923828125	14750.4794921875	15816.4111328125	15395.470703125	14521.9599609375	15069.78125	5839.3955078125	7646.912109375	15563.85546875	16808.521484375	12043.09765625	7387.3388671875	14804.1650390625	14577.0595703125	15044.841796875	14305.16015625	15818.80859375	13636.4072265625	13151.08984375	13172.5439453125	12948.837890625	12274.2880859375	12339.0546875	13611.8984375	14203.2568359375	13553.8466796875	14484.2724609375	13747.48828125	14056.3896484375	10248.6982421875	13416.73046875	14966.2021484375	13480.611328125	14676.087890625	14483.177734375	14402.123046875	14377.951171875	14228.24609375	14922.8662109375	13618.4443359375	14318.3955078125	13425.337890625	10356.326171875	15278.5634765625	15891.162109375	15663.3798828125	14065.908203125	14811.0439453125	14374.9091796875	14660.7646484375	13262.732421875	13767.328125	13668.92578125	13141.810546875	13236.330078125	12947.7900390625	13193.541015625	13130.7470703125	13734.5341796875	13545.9169921875	12189.435546875	13793.7060546875	13999.203125	11356.8486328125	13126.6201171875	14551.1640625	13653.177734375	14785.677734375	14090.6494140625	14167.7822265625	14409.7177734375	13633.4248046875	14504.6904296875	13695.4853515625	13553.607421875	13201.7685546875	9453.6953125	13733.0205078125	14500.0400390625	14864.3388671875
1500	1800	13911.41796875	15462.1669921875	14417.951171875	17112.462890625	13750.4443359375	15777.66015625	17485.5234375	14865.689453125	13134.2919921875	13714.25390625	11547.818359375	11494.6923828125	14287.591796875	12296.3974609375	13877.546875	15190.3486328125	14051.380859375	17698.5	13871.5068359375	15346.3154296875	16846.96875	13532.3857421875	13993.9208984375	14730.6416015625	13638.517578125	13807.080078125	5732.3916015625	7433.70458984375	13573.453125	15656.5595703125	10722.7783203125	7599.61669921875	13766.4189453125	13625.6416015625	13511.1171875	13086.83203125	14390.0478515625	12127.3857421875	12042.0625	12235.4609375	11984.8583984375	11451.1083984375	11629.9609375	12134.5068359375	12858.5107421875	12275.1162109375	12995.900390625	13006.828125	12731.732421875	9807.810546875	12165.7958984375	13947.8779296875	12195.5283203125	13438.767578125	13202.1162109375	13186.0830078125	12822.4423828125	12806.68359375	13254.4248046875	12443.0419921875	12790.68359375	12034.1630859375	9449.888671875	14319.2138671875	14437.421875	14045.1396484375	12769.5625	13838.4912109375	12811.720703125	13024.5869140625	12525.8154296875	12211.771484375	12495.201171875	12367.373046875	12432.99609375	12054.5078125	12074.30859375	11936.611328125	12250.1806640625	12325.5146484375	11162.3515625	12657.66796875	12630.64453125	10743.15625	11897.1953125	13077.3701171875	12435.5146484375	13621.4892578125	13011.43359375	12943.3681640625	12765.111328125	12460.6015625	13074.498046875	12422.849609375	12111.9091796875	12128.912109375	8941.9365234375	12509.0244140625	13712.880859375	13697.4794921875
1800	2100	13201.8828125	14130.9462890625	13270.654296875	15497.9775390625	12656.1083984375	14463.447265625	16234.0439453125	13894.2744140625	12134.685546875	11381.4970703125	10604.5341796875	10862.0791015625	13583.1953125	12339.3232421875	13249.1708984375	14407.9013671875	12737.953125	15619.568359375	12606.056640625	13932.662109375	16138.4423828125	12074.3486328125	13008.1416015625	13160.37109375	13144.8271484375	12508.521484375	5679.57666015625	7235.88037109375	12525.1201171875	14543.9013671875	9644.10546875	7688.392578125	12776.5087890625	12924.162109375	12040.26171875	12082.755859375	13177.9873046875	11137.8896484375	11031.712890625	11564.390625	11144.9345703125	10482.7314453125	10956.314453125	11123.0263671875	12025.458984375	11368.70703125	12067.1552734375	11649.2060546875	11581.9052734375	9426.62109375	10869.3173828125	12503.6259765625	11114.0986328125	12606.9189453125	12065.19921875	12092.1279296875	11900.22265625	11540.421875	12001.0966796875	11288.0419921875	11819.6494140625	11004.44140625	9201.9033203125	12784.021484375	13079.662109375	12516.6484375	12369.6337890625	12056.7978515625	11947.6728515625	12342.2333984375	11340.3720703125	11351.3115234375	11460.0927734375	11517.873046875	11151.9873046875	11197.876953125	11402.2607421875	11159.7158203125	11394.986328125	11679.6025390625	10471.9111328125	11501.0810546875	11463.130859375	10209.0556640625	11119.8212890625	12134.0869140625	11271.3896484375	12795.7900390625	11810.6962890625	11734.3681640625	12091.0537109375	11309.6328125	11852.41015625	11402.7216796875	11129.6875	11033.689453125	8497.884765625	11508.48828125	12125.078125	12231.326171875
2100	2400	12393.59375	13401.7587890625	11918.919921875	13618.232421875	11512.0419921875	13066.4970703125	13986.0576171875	12432.7998046875	11429.4033203125	11811.8134765625	9581.1787109375	9989.3173828125	12282.5908203125	11367.9140625	12420.1083984375	13783.7275390625	11474.19140625	14371.71875	11593.5830078125	12458.1796875	14044.4521484375	10804.08984375	11019.8759765625	11193.4306640625	12364.48828125	11122.1982421875	5533.720703125	7014.93603515625	11294.7138671875	13435.7001953125	8707.681640625	7707.8369140625	11821.193359375	11147.091796875	11272.9296875	10708.7734375	12005.9130859375	10086.5693359375	10037.7705078125	10350.9306640625	10159.78125	9655.1240234375	10003.826171875	10004.1630859375	10894.6875	10410.0439453125	10964.4814453125	10427.673828125	10693.45703125	8649.216796875	9926.63671875	11757.6943359375	10144.1435546875	11549.0498046875	11072.0703125	11054.7177734375	10658.103515625	10551.8994140625	11023.326171875	10337.591796875	10748.228515625	10052.3291015625	7997.14208984375	11466.4091796875	12156.0380859375	11551.5498046875	10912.0546875	11828.43359375	10436.7158203125	11067.421875	10037.583984375	10083.3671875	10402.5087890625	10579.6513671875	10466.45703125	10142.537109375	10179.0390625	9965.72265625	10434.0009765625	10527.998046875	9849.25	10152.779296875	10323.9775390625	9627.302734375	10137.4150390625	11378.1904296875	10201.2177734375	11648.6572265625	10944.9580078125	10586.576171875	10854.373046875	10216.7568359375	10592.392578125	10417.9541015625	10109.8623046875	9990.841796875	7501.27490234375	10458.994140625	11637.1865234375	11199.9404296875
2400	2700	11661.1650390625	12451.8896484375	11260.451171875	12315.9814453125	10285.5693359375	11751.927734375	13280.591796875	11450.81640625	9783.25	9673.6337890625	9089.2314453125	9426.6953125	11123.501953125	9559.3369140625	11743.931640625	12681.1689453125	10668.587890625	12821.33203125	10672.4375	11436.90625	12758.7626953125	10438.7333984375	9762.2099609375	10918.0244140625	10798.88671875	11102.123046875	5265.4609375	6784.26171875	10301.19140625	12923.6064453125	8095.7236328125	7566.69677734375	11074.7373046875	11359.6845703125	10388.8623046875	9751.3076171875	11060.73046875	9263.3017578125	9285.263671875	9483.076171875	9589.2958984375	8811.7421875	9137.87109375	9387.5166015625	9813.1162109375	9598.2451171875	9997.4140625	9518.330078125	9784.66796875	7910.5458984375	8802.0341796875	10774.6240234375	9352.6328125	11186.3251953125	10247.21484375	10209.9521484375	10081.6953125	9688.8486328125	10264.234375	9676.05078125	10044.64453125	9304.91015625	7251.51806640625	10689.1953125	11435.734375	10521.326171875	10416.2548828125	10523.3642578125	9710.298828125	10177.7763671875	9519.896484375	9064.17578125	9671.40625	9751.837890625	9676.44921875	9571.5263671875	9147.974609375	9027.5380859375	9693.953125	9819.203125	9033.53125	9337.4326171875	9975.4130859375	8776.91015625	9680.1162109375	10688.4609375	9571.314453125	11004.8583984375	10098.7705078125	9855.0927734375	9562.9580078125	9522.75	9796.3623046875	9721.5419921875	9464.9951171875	9307.8564453125	7069.1865234375	9353.521484375	9725.53515625	10487.560546875
