frame_start	frame_end	Left-Cerebral-White-Matter	Left-Cerebellum-White-Matter	Left-Cerebellum-Cortex	Left-Thalamus	Left-Caudate	Left-Putamen	Left-Pallidum	Brain-Stem	Left-Hippocampus	Left-Amygdala	CSF	Left-Accumbens-area	Left-VentralDC	Left-choroid-plexus	Right-Cerebral-White-Matter	Right-Cerebellum-White-Matter	Right-Cerebellum-Cortex	Right-Thalamus	Right-Caudate	Right-Putamen	Right-Pallidum	Right-Hippocampus	Right-Amygdala	Right-Accumbens-area	Right-VentralDC	Right-choroid-plexus	AirCavity	Skull	Vermis	Pons	CSF-ExtraCerebral	Head-ExtraCerebral	ctx-lh-bankssts	ctx-lh-caudalanteriorcingulate	ctx-lh-caudalmiddlefrontal	ctx-lh-cuneus	ctx-lh-entorhinal	ctx-lh-fusiform	ctx-lh-inferiorparietal	ctx-lh-inferiortemporal	ctx-lh-isthmuscingulate	ctx-lh-lateraloccipital	ctx-lh-lateralorbitofrontal	ctx-lh-lingual	ctx-lh-medialorbitofrontal	ctx-lh-middletemporal	ctx-lh-parahippocampal	ctx-lh-paracentral	ctx-lh-parsopercularis	ctx-lh-parsorbitalis	ctx-lh-parstriangularis	ctx-lh-pericalcarine	ctx-lh-postcentral	ctx-lh-posteriorcingulate	ctx-lh-precentral	ctx-lh-precuneus	ctx-lh-rostralanteriorcingulate	ctx-lh-rostralmiddlefrontal	ctx-lh-superiorfrontal	ctx-lh-superiorparietal	ctx-lh-superiortemporal	ctx-lh-supramarginal	ctx-lh-frontalpole	ctx-lh-temporalpole	ctx-lh-transversetemporal	ctx-lh-insula	ctx-rh-bankssts	ctx-rh-caudalanteriorcingulate	ctx-rh-caudalmiddlefrontal	ctx-rh-cuneus	ctx-rh-entorhinal	ctx-rh-fusiform	ctx-rh-inferiorparietal	ctx-rh-inferiortemporal	ctx-rh-isthmuscingulate	ctx-rh-lateraloccipital	ctx-rh-lateralorbitofrontal	ctx-rh-lingual	ctx-rh-medialorbitofrontal	ctx-rh-middletemporal	ctx-rh-parahippocampal	ctx-rh-paracentral	ctx-rh-parsopercularis	ctx-rh-parsorbitalis	ctx-rh-parstriangularis	ctx-rh-pericalcarine	ctx-rh-postcentral	ctx-rh-posteriorcingulate	ctx-rh-precentral	ctx-rh-precuneus	ctx-rh-rostralanteriorcingulate	ctx-rh-rostralmiddlefrontal	ctx-rh-superiorfrontal	ctx-rh-superiorparietal	ctx-rh-superiortemporal	ctx-rh-supramarginal	ctx-rh-frontalpole	ctx-rh-temporalpole	ctx-rh-transversetemporal	ctx-rh-insula
0	30	136.82968139648438	146.8469696044922	109.68075561523438	135.32351684570312	227.66282653808594	332.1911926269531	186.3298797607422	198.35177612304688	54.138912200927734	19.968631744384766	179.16781616210938	539.305419921875	150.7495574951172	-1090.986083984375	166.2412109375	58.18439483642578	65.8671646118164	133.71978759765625	286.7281494140625	207.91781616210938	119.61792755126953	331.39251708984375	-317.9617004394531	2276.71240234375	95.2238998413086	1572.1090087890625	-0.3173099756240845	98.74718475341797	534.2471313476562	14.501063346862793	328.28228759765625	22.285917282104492	25.6353759765625	185.33648681640625	455.5563049316406	304.0724182128906	147.2723388671875	140.33114624023438	249.56175231933594	-33.68522644042969	-90.00466918945312	140.17445373535156	229.061279296875	76.0754165649414	418.2005920410156	16.203218460083008	215.114013671875	402.08856201171875	136.92649841308594	10.723395347595215	243.74241638183594	261.6562194824219	312.9010009765625	157.02821350097656	332.721435546875	516.2554321289062	276.8050842285156	301.9923400878906	389.4928894042969	253.2763671875	227.20762634277344	214.9478759765625	113.857666015625	504.6482849121094	386.55743408203125	284.7510681152344	226.24356079101562	-281.2970886230469	267.7645568847656	337.9289245605469	2127.62548828125	-45.9786262512207	120.14159393310547	2.7846839427948	99.58500671386719	191.64686584472656	110.72476196289062	57.93950271606445	274.8739013671875	-142.07693481445312	-22.929323196411133	569.365478515625	330.40313720703125	-221.27012634277344	182.9979705810547	313.4177551269531	318.017822265625	-12.946678161621094	213.74696350097656	169.34815979003906	50.995574951171875	189.2421875	296.0580749511719	178.1658477783203	87.2768783569336	366.91650390625	268.7484436035156	12.331690788269043	533.2633056640625	576.1578369140625
30	60	3559.039794921875	3739.4208984375	6543.3974609375	7312.17431640625	6923.51123046875	11146.4306640625	3657.558837890625	4987.60791015625	10075.1591796875	4825.154296875	8522.4501953125	12887.634765625	3053.83203125	-30123.375	3799.99951171875	3616.136474609375	6654.279296875	6524.86767578125	8602.556640625	10589.6748046875	5728.84033203125	7377.98779296875	-739.1504516601562	17560.587890625	6016.095703125	21683.240234375	598.97509765625	3000.150146484375	15120.7978515625	5410.375	9148.333984375	1122.824462890625	4017.390380859375	1385.4342041015625	9746.4990234375	15816.423828125	8407.2958984375	9763.3720703125	7765.958984375	6742.1474609375	5296.74169921875	8754.4189453125	8537.326171875	9045.0244140625	10132.1337890625	7104.21044921875	5223.12548828125	9188.130859375	10321.5859375	1173.792724609375	9821.0087890625	12257.2158203125	9955.9765625	6011.873046875	7356.18603515625	12231.375	11589.154296875	9252.9208984375	9713.5166015625	6571.54443359375	8613.369140625	9114.8798828125	9262.458984375	11501.779296875	6249.64794921875	8032.35009765625	6696.2607421875	739.7034301757812	8262.53125	11978.0986328125	18069.833984375	7287.65673828125	7511.3994140625	6948.04541015625	4419.080078125	10476.658203125	9761.470703125	7874.0849609375	7824.232421875	3070.91845703125	-1609.4932861328125	9821.17578125	8602.359375	-1514.76513671875	7320.76611328125	11371.365234375	8680.005859375	5899.044921875	6899.8134765625	10581.1064453125	5706.8271484375	8234.4228515625	8161.42724609375	5663.8408203125	7803.28125	8746.568359375	2017.881103515625	5418.5849609375	7488.44189453125	8332.6826171875
60	90	9404.7548828125	11644.041015625	19161.046875	19212.73828125	22555.296875	31243.435546875	11565.923828125	11877.103515625	22945.001953125	-1182.0679931640625	22573.25	29755.09375	6693.85791015625	-56573.12890625	10050.7451171875	11464.2958984375	18984.515625	16964.81640625	25731.58203125	28683.0078125	12225.0751953125	15387.9462890625	8228.671875	16628.7265625	11810.443359375	55329.2421875	1292.098388671875	7089.126953125	41217.2421875	16147.2939453125	22991.884765625	3103.479736328125	11468.984375	5138.03466796875	27522.9375	36908.28125	23482.107421875	29911.0	21041.57421875	22232.458984375	11840.5048828125	22281.677734375	21613.791015625	23760.791015625	25291.96484375	21303.533203125	10296.59375	25895.91796875	28715.455078125	3483.2490234375	29070.5703125	32770.96484375	27938.302734375	12347.671875	21724.79296875	30143.9765625	29588.615234375	26146.498046875	25416.30078125	19787.0703125	23773.26953125	23992.02734375	21506.029296875	23209.7890625	12288.8662109375	18785.98828125	18912.255859375	-4522.26416015625	23131.888671875	32984.83984375	31034.984375	21542.556640625	21121.650390625	19769.939453125	6489.31494140625	27055.37890625	22952.369140625	22934.98828125	24841.41796875	13055.205078125	4635.7744140625	25120.517578125	23889.896484375	-771.7561645507812	19688.466796875	27319.697265625	25975.7578125	16405.322265625	18744.66015625	29471.505859375	13501.3447265625	23198.1171875	24050.779296875	17668.177734375	20218.08203125	22990.900390625	2630.673828125	17314.857421875	20607.96875	16738.404296875
90	120	15553.45703125	16985.671875	31979.943359375	35045.453125	41521.24609375	52249.3046875	16058.3515625	17999.548828125	32871.7109375	16057.603515625	34960.984375	21635.8671875	11486.5322265625	-38527.2109375	16840.462890625	17135.80859375	31680.236328125	30227.134765625	40073.41796875	47209.75	21498.3515625	29794.607421875	15633.23046875	29038.46484375	14227.7568359375	67249.328125	1874.3985595703125	11065.6611328125	61120.38671875	29834.140625	37184.72265625	4927.76171875	20371.154296875	6685.498046875	47594.96875	62758.20703125	40862.61328125	52196.01171875	35728.25	32512.341796875	21860.748046875	37130.4296875	33830.7421875	39838.5234375	45029.703125	37358.45703125	23465.427734375	47868.875	46542.2890625	6371.69775390625	49158.8671875	56654.53515625	47084.62890625	18284.984375	34472.07421875	49229.6484375	50725.40625	45124.609375	42761.93359375	34495.3046875	39160.06640625	40515.125	33675.5703125	44332.12890625	18136.9609375	32356.486328125	30916.435546875	-3975.442138671875	38666.78515625	55276.7421875	21783.763671875	38322.36328125	37012.37890625	30116.2265625	15176.2373046875	43385.046875	37427.046875	37697.90625	38402.33203125	24145.169921875	-1286.310791015625	42045.34375	40692.40625	-1420.6529541015625	35059.796875	46835.01171875	40803.7734375	26180.25390625	31812.517578125	46383.140625	22967.423828125	40831.421875	39405.046875	29486.23046875	32720.048828125	37635.26953125	9433.2060546875	27972.587890625	32471.955078125	30131.373046875
120	150	20308.060546875	20852.259765625	43118.1015625	45360.08984375	61406.796875	66563.0859375	25133.607421875	26388.4765625	39759.57421875	16230.669921875	44764.3125	-8475.2275390625	9981.4990234375	-79605.609375	21777.58203125	21684.927734375	42244.12890625	42235.89453125	54753.37109375	66607.0625	21006.744140625	44791.36328125	14120.88671875	25406.9140625	15746.671875	98448.734375	2911.513916015625	14212.595703125	97074.6171875	39094.1875	47895.984375	6453.9326171875	25183.779296875	8561.546875	63209.87109375	76948.640625	47721.58203125	72061.3203125	47454.54296875	43540.9296875	25950.5078125	50457.94921875	41810.359375	53548.41796875	60102.265625	49721.21484375	28760.62109375	59980.6640625	58141.55078125	7939.9638671875	65187.21484375	73033.4375	61324.828125	28562.45703125	48057.08984375	66073.34375	59845.4140625	58972.37109375	54718.31640625	45318.4453125	51413.7109375	55787.79296875	45434.74609375	49661.91015625	26228.783203125	41028.42578125	43073.140625	-2932.662109375	50410.140625	74607.5546875	18658.103515625	53149.04296875	48059.16796875	36967.80078125	10988.8017578125	54576.30859375	47982.21484375	46159.02734375	49886.70703125	32577.103515625	-2448.89990234375	57270.7578125	50569.73828125	-1396.1492919921875	45390.0625	65000.18359375	54952.10546875	24602.33984375	42361.60546875	61594.51171875	26365.8828125	54170.54296875	53002.515625	40209.171875	45722.203125	49712.39453125	11549.357421875	36128.30078125	40952.6953125	34369.453125
150	180	21885.5078125	20476.30859375	45756.953125	47213.3515625	61607.3359375	66726.8046875	27630.712890625	25396.337890625	35820.61328125	25118.1484375	47425.53515625	-7260.490234375	7884.9072265625	-42307.9453125	23372.955078125	22570.23046875	44558.7109375	43436.77734375	57357.78515625	64333.109375	21656.671875	36806.10546875	31037.23828125	25987.037109375	15256.8701171875	118055.0078125	2696.5205078125	14222.666015625	105643.1796875	39119.7890625	49200.1484375	7195.5791015625	29646.955078125	1785.1966552734375	64518.39453125	78020.1171875	47142.8828125	74820.4375	51235.8671875	46526.86328125	25931.48828125	52357.8046875	42149.49609375	57043.296875	59509.09375	52453.46875	29655.951171875	67720.28125	60002.74609375	10859.78125	67933.09375	75200.3203125	64180.265625	23798.51953125	47958.03515625	66120.015625	63332.25	62342.41015625	57726.63671875	47614.29296875	53996.93359375	55669.52734375	46080.6484375	54379.1171875	30147.173828125	47276.7109375	44084.94140625	-3385.202392578125	54551.78515625	78396.703125	8931.7822265625	57832.19140625	50824.10546875	36845.9921875	10223.044921875	53119.63671875	47509.25390625	50203.4765625	50358.046875	36100.08984375	4839.525390625	59073.5234375	48123.9140625	-1340.2049560546875	50477.55078125	61568.8046875	57872.1875	29109.328125	45377.48046875	64675.6953125	24841.751953125	56312.140625	55741.80078125	43523.28515625	47230.42578125	51343.92578125	7815.2294921875	34959.86328125	37390.375	40492.1484375
180	240	20909.66015625	18393.8828125	45420.19140625	48219.23046875	60153.828125	70487.0703125	22773.978515625	26404.0390625	39688.984375	24407.603515625	44456.5859375	-13577.1015625	8127.13525390625	-76420.4921875	22757.025390625	23409.8046875	44075.0859375	43489.890625	58145.9921875	62709.34375	27896.009765625	43823.734375	23548.896484375	6917.3076171875	15736.966796875	115723.9296875	2564.286376953125	13615.5927734375	94475.96875	38517.890625	45673.68359375	7245.8828125	27501.345703125	9955.607421875	63612.80078125	73739.8046875	48714.64453125	73172.8671875	50824.02734375	46132.4765625	28086.607421875	50262.84375	41693.7890625	55981.546875	58480.24609375	53391.640625	31611.19921875	63658.4140625	60022.69921875	13002.6083984375	65597.8046875	74026.828125	62907.28515625	23259.919921875	49514.42578125	63337.39453125	65245.87890625	62273.80859375	57363.109375	47845.9375	54443.66796875	55405.6640625	40345.59375	55498.0390625	25249.06640625	43945.77734375	41966.28515625	-1033.606689453125	54127.4375	72024.484375	6362.96484375	57619.4609375	49990.62890625	34921.8515625	11286.8994140625	51132.8046875	47224.76953125	49054.33984375	51884.171875	39068.6953125	352.56451416015625	55700.828125	49679.6328125	1594.7869873046875	45887.0390625	58677.0	56762.82421875	28106.15234375	44663.4375	63083.01171875	27852.34375	55657.1484375	53559.78125	44855.37109375	47199.6171875	51261.0234375	13176.1044921875	35863.0546875	37077.34375	40459.015625
240	300	19784.3203125	17423.314453125	42532.625	46152.26171875	56349.98828125	64214.140625	24150.921875	26137.8515625	32104.330078125	30965.830078125	40259.14453125	-10367.771484375	8503.6328125	-44506.00390625	21328.408203125	21243.771484375	41264.28515625	42622.05078125	57697.99609375	61085.375	21894.923828125	43566.69140625	28444.322265625	-19.14009666442871	14986.1220703125	93480.59375	2664.925537109375	12648.5341796875	81273.375	36714.43359375	40510.51171875	7148.3017578125	29571.953125	12272.28125	58474.6953125	62639.625	56385.8671875	68111.0859375	46723.50390625	45098.46875	22727.185546875	45343.61328125	39988.1484375	52220.2578125	55386.67578125	49945.5625	32972.5078125	57316.5390625	54570.60546875	11126.1904296875	61417.328125	66119.1484375	58223.74609375	23041.30078125	45084.47265625	59201.2109375	60662.20703125	57776.2890625	53136.80078125	43999.0859375	51415.44921875	50031.10546875	41705.42578125	54370.82421875	26058.951171875	44131.95703125	42604.76171875	6261.77880859375	49830.80859375	62859.55078125	15455.3134765625	53984.2109375	47085.07421875	34105.94140625	8578.9814453125	47877.0078125	45208.99609375	45228.59375	48843.5625	37521.87109375	2267.7578125	51112.0546875	46626.86328125	5067.35107421875	43864.62890625	56311.390625	51822.12109375	26624.740234375	41327.19921875	55049.78125	29965.32421875	51147.2578125	50233.6484375	41922.984375	46817.921875	47274.90625	15545.87890625	37665.34375	30381.078125	39390.54296875
300	360	18395.75390625	14583.8916015625	40105.54296875	45996.8828125	55205.53515625	61265.78515625	25263.01171875	24630.427734375	29837.013671875	34419.69140625	35980.78125	-7979.8759765625	9250.5458984375	-45456.80859375	20212.158203125	19886.814453125	38583.78125	41508.2265625	52166.33203125	55057.5234375	26337.509765625	37974.234375	32616.896484375	15692.6806640625	13980.74609375	85349.28125	3397.6044921875	11645.71484375	58825.71484375	32594.794921875	35420.86328125	7334.35986328125	27538.228515625	16912.20703125	53816.015625	53596.91015625	57911.46484375	62976.51953125	42459.3984375	41014.890625	23853.14453125	40582.4609375	36919.66015625	45483.87890625	51234.89453125	46862.24609375	35477.10546875	52570.9453125	50703.265625	14664.021484375	53242.6015625	57654.09765625	53731.18359375	25412.09375	42176.4609375	50903.48046875	54510.48828125	52192.22265625	48933.87890625	41432.41796875	49209.5	46146.74609375	35393.79296875	52632.4765625	25613.55859375	42067.50390625	35839.43359375	4902.83935546875	44838.64453125	56943.99609375	10129.8212890625	50483.3984375	43244.765625	32453.888671875	8857.4208984375	41489.85546875	41476.05859375	40546.40234375	45984.1015625	35615.1953125	3381.322509765625	45936.6015625	42690.2890625	8320.251953125	40061.33203125	46790.6015625	47154.72265625	23834.4921875	38276.49609375	48785.04296875	29924.82421875	46540.0078125	46127.00390625	38114.203125	42160.984375	42206.484375	14470.8818359375	38745.33203125	29609.736328125	37718.55859375
360	480	17178.0625	14315.341796875	36048.16796875	42785.83984375	45503.296875	50574.03515625	27305.541015625	24635.01953125	25196.248046875	34746.7109375	28227.32421875	-7106.1767578125	10959.375	-35415.03125	18215.57421875	16403.365234375	35007.90625	40111.80859375	45334.80078125	47824.3984375	24909.939453125	35870.54296875	34845.8515625	28297.49609375	13859.9482421875	76654.3671875	3668.68798828125	10492.228515625	47239.3359375	29267.9765625	28242.265625	7367.37451171875	26585.541015625	19937.2734375	46507.21875	42572.99609375	60434.97265625	51858.4765625	35789.875	38930.3984375	21025.44140625	34722.00390625	33788.1640625	40258.421875	44971.609375	40620.359375	35496.7109375	43002.01953125	43860.703125	13985.90625	45023.19921875	48218.28515625	44617.109375	21727.244140625	38165.6640625	42541.1640625	44829.6328125	44454.91796875	42453.42578125	35711.9375	43384.37109375	39116.40625	28583.478515625	52993.83203125	26855.41796875	41747.90234375	36263.69140625	13994.0166015625	37969.08203125	45574.01953125	24579.634765625	42881.0859375	36644.4453125	31225.462890625	13455.005859375	35144.49609375	37555.10546875	35682.8671875	40820.30859375	33770.546875	5771.951171875	40641.8828125	35485.27734375	12201.267578125	35586.26171875	40019.0078125	40591.15625	23851.693359375	35180.99609375	40871.640625	29636.91796875	39597.83984375	40994.09375	34646.828125	38536.703125	36284.31640625	11563.912109375	36795.703125	32531.06640625	35162.2109375
480	600	15777.22265625	13270.8466796875	30742.119140625	37882.87890625	38610.390625	42610.109375	25162.365234375	23933.0546875	19929.80078125	48753.48046875	22660.8984375	10307.48046875	13439.052734375	-9318.4287109375	16595.935546875	14944.1865234375	30538.140625	37017.78125	37427.46484375	39025.53125	23273.716796875	32437.431640625	33217.984375	30285.134765625	12711.314453125	55168.4375	3921.25537109375	9396.6591796875	35427.98046875	25863.818359375	21678.8046875	7391.75830078125	24158.55078125	18782.48828125	39381.3125	32856.62890625	56919.6875	41664.81640625	28874.564453125	33141.51171875	16429.11328125	28145.802734375	27860.052734375	33064.88671875	37065.15234375	33824.9765625	34592.51171875	34381.515625	34345.5703125	13566.2548828125	36681.015625	37552.9140625	35633.484375	18770.455078125	31744.787109375	34700.40234375	38500.625	36320.46875	34858.4609375	29224.486328125	36478.34765625	31083.546875	22882.65234375	50956.3515625	24909.103515625	36633.8828125	28512.494140625	16598.57421875	31148.443359375	34992.9375	28436.009765625	35343.00390625	30569.119140625	26872.470703125	12622.48828125	28666.658203125	32055.224609375	28080.16796875	32877.84375	30454.4375	11054.2841796875	31349.498046875	29664.498046875	10914.8642578125	30047.091796875	30226.283203125	32877.5625	22928.490234375	29602.568359375	32307.5390625	25402.99609375	32872.0078125	34175.1015625	29054.36328125	32998.515625	28871.474609375	8691.3212890625	35356.98828125	24086.435546875	32590.658203125
600	900	14779.6162109375	13238.7685546875	25521.52734375	32506.30859375	29881.599609375	31544.376953125	25762.650390625	22446.052734375	13310.15625	40631.30859375	15448.208984375	4939.427734375	14370.5498046875	38015.16796875	15267.68359375	13604.5986328125	25239.384765625	31722.53125	28569.373046875	30124.64453125	23426.513671875	26617.322265625	31374.845703125	20410.916015625	13636.66796875	44415.99609375	4411.693359375	8427.744140625	21454.2265625	22198.591796875	14536.6728515625	7707.4697265625	20274.4765625	20465.923828125	30447.794921875	23942.443359375	46313.9140625	30493.94921875	22271.4375	25822.33203125	15065.8857421875	20588.203125	21644.33984375	24522.333984375	28362.373046875	26915.568359375	29743.4375	24318.888671875	27091.87890625	10902.8076171875	27288.984375	26230.357421875	26343.390625	19360.1328125	24857.89453125	25769.33984375	28739.1953125	27523.544921875	27285.822265625	22689.015625	28835.74609375	23837.197265625	14437.1171875	42584.26953125	23196.37890625	31994.6953125	23973.345703125	16976.638671875	24902.65234375	25040.9609375	25536.333984375	26826.810546875	23489.54296875	22120.119140625	13464.3310546875	21809.294921875	24112.609375	21033.4765625	27337.93359375	24918.158203125	10954.1474609375	23515.8671875	22771.7421875	11807.3017578125	22353.068359375	22985.96875	24960.013671875	18569.15625	23719.2890625	24320.3671875	24014.623046875	25023.013671875	26768.490234375	23789.978515625	26480.0	21929.62109375	5107.6123046875	29556.873046875	21515.734375	27805.568359375
900	1200	14524.90625	13296.232421875	21510.703125	27587.177734375	22785.294921875	24020.591796875	22719.7734375	20429.11328125	10023.5927734375	32545.71484375	9550.162109375	5174.44482421875	15318.0361328125	37113.9765625	14653.3818359375	14272.15234375	20876.578125	27352.08984375	21744.9765625	22685.37109375	22107.630859375	22541.5625	28398.06640625	14815.1884765625	13599.79296875	35922.49609375	4844.21435546875	7720.6611328125	10080.0126953125	18682.9765625	9472.283203125	8276.4150390625	17920.27734375	18250.646484375	23932.49609375	18400.6953125	40996.59765625	21826.318359375	16979.74609375	20435.748046875	13501.1474609375	15165.5234375	17546.380859375	18390.94140625	22336.736328125	21206.1796875	23522.40625	16774.388671875	20436.078125	10558.634765625	19628.677734375	19299.09765625	18946.005859375	16374.5263671875	20057.69921875	19703.060546875	21747.96875	20968.123046875	21352.197265625	18131.86328125	23291.99609375	17927.892578125	9291.57421875	35673.69921875	21898.78515625	25892.232421875	18886.119140625	18242.814453125	19474.796875	19636.369140625	24768.98828125	19856.5078125	18561.845703125	18574.79296875	14177.5068359375	17438.68359375	18872.158203125	15906.8173828125	23704.544921875	21251.87890625	9683.3583984375	18246.5625	18121.08984375	12652.466796875	18772.169921875	18337.544921875	18783.82421875	19196.576171875	19268.080078125	18408.75	19265.931640625	19683.107421875	21644.4375	19591.09765625	21518.427734375	17271.62890625	5887.79296875	26380.634765625	19363.33203125	23397.173828125
1200	1500	14563.6318359375	13661.880859375	19626.298828125	23468.951171875	18061.61328125	19087.171875	23569.91015625	18427.474609375	9450.5322265625	24943.400390625	6883.85986328125	6406.400390625	16057.5634765625	30550.791015625	14567.4423828125	14692.9462890625	18611.42578125	24030.73046875	17781.189453125	18788.955078125	20803.669921875	19432.7109375	24119.845703125	11435.0654296875	13619.82421875	28573.62109375	4912.5380859375	7562.3251953125	6955.06201171875	18324.333984375	6927.25146484375	8787.65625	16105.3583984375	15653.3271484375	20093.70703125	16326.078125	36827.7109375	18070.8984375	14079.6328125	17193.998046875	12486.80859375	12652.158203125	14333.912109375	15435.4755859375	20724.505859375	17913.169921875	21605.763671875	13888.203125	17926.861328125	9570.537109375	16708.076171875	17508.603515625	15506.56640625	15631.470703125	17316.48046875	17069.560546875	17872.330078125	17885.58203125	19022.6953125	15731.29296875	20168.935546875	15481.1552734375	7284.52783203125	31807.341796875	21105.146484375	22629.57421875	15881.9921875	17170.3359375	17724.849609375	17511.013671875	24244.244140625	16728.49609375	16130.919921875	16370.2236328125	14295.865234375	14949.8759765625	17877.611328125	13673.484375	20414.689453125	18955.642578125	9026.4375	15255.6171875	16880.037109375	12771.1103515625	16515.716796875	16981.875	16118.3662109375	17173.638671875	16569.296875	15511.9140625	17779.904296875	16848.3671875	18832.271484375	17442.072265625	18299.21484375	14849.7861328125	3219.870361328125	22895.58984375	18096.361328125	19686.517578125
1500	1800	14564.28515625	14039.876953125	17401.140625	20789.876953125	17326.2421875	15677.0859375	21289.546875	17601.962890625	10700.0146484375	21598.603515625	4332.02490234375	-3363.348388671875	15527.98046875	31568.63671875	14453.7998046875	14288.138671875	16832.884765625	21384.37890625	15350.85546875	15305.353515625	18726.181640625	17877.275390625	21548.931640625	16233.2451171875	12923.8623046875	29266.373046875	4778.38916015625	7466.02099609375	4252.5078125	16812.583984375	5352.21630859375	9113.90234375	15297.0595703125	14884.470703125	16673.189453125	15095.9052734375	34108.96484375	14680.4677734375	12366.8037109375	15303.9853515625	11356.3369140625	11118.69921875	13198.1474609375	13345.7333984375	18410.37109375	15282.6669921875	18131.8671875	12839.0859375	15286.7880859375	9058.4130859375	14090.8583984375	15430.8984375	12828.984375	14284.9248046875	15221.9912109375	15252.7197265625	15433.330078125	15201.6416015625	15940.8564453125	13807.65234375	17116.232421875	13220.0146484375	5258.3466796875	29018.490234375	20091.28515625	19322.47265625	13793.080078125	17188.705078125	14937.314453125	14172.9287109375	25284.591796875	13489.154296875	14490.9267578125	15762.8515625	13908.8701171875	13771.265625	15486.958984375	12452.5595703125	17792.63671875	16903.41015625	8254.30859375	13766.24609375	14551.828125	12304.9013671875	14297.892578125	13902.7177734375	14115.9990234375	15588.16796875	15001.0556640625	13915.044921875	15351.3017578125	15141.76953125	16287.171875	15506.763671875	15497.884765625	13317.318359375	3758.836181640625	20191.25390625	18174.087890625	18067.357421875
1800	2100	14363.5224609375	12910.306640625	16049.3642578125	18407.55859375	14969.8720703125	13932.5498046875	19402.85546875	16520.484375	8327.6337890625	15180.701171875	3593.335693359375	-4000.974853515625	15403.6630859375	49252.5234375	14316.4873046875	14143.6240234375	15171.365234375	18415.697265625	13137.3193359375	13240.345703125	18650.345703125	14765.01171875	20246.501953125	11340.8388671875	13415.267578125	20658.521484375	4777.57080078125	7360.6025390625	2743.42822265625	15572.4287109375	3936.523681640625	9279.595703125	13896.494140625	16493.771484375	13984.41015625	13883.61328125	30848.412109375	12700.826171875	10923.517578125	14328.998046875	11016.53125	9466.3271484375	12179.66015625	12264.216796875	17137.041015625	13701.724609375	18003.03125	10662.064453125	13570.4169921875	9003.66796875	11533.1923828125	12441.76953125	11121.37890625	13074.8232421875	13149.541015625	13752.2099609375	14823.83203125	12796.919921875	13825.8193359375	12047.2392578125	15791.7822265625	11826.166015625	6263.51708984375	24674.833984375	17269.8984375	17031.83203125	14075.826171875	12159.7705078125	14331.2529296875	13964.5078125	20862.341796875	12226.6962890625	13139.57421875	14414.501953125	11278.1904296875	12489.078125	14428.716796875	11774.9375	16647.87890625	15918.4111328125	8214.962890625	12055.2578125	13196.263671875	12214.9697265625	13321.67578125	12364.5830078125	12216.3037109375	14564.173828125	12846.154296875	12090.8369140625	14971.35546875	13312.5693359375	14448.404296875	14106.4541015625	14231.939453125	11903.2158203125	2634.72265625	17549.888671875	14057.912109375	15677.9052734375
2100	2400	13959.6611328125	13194.052734375	14214.7490234375	15941.6396484375	12717.0322265625	11988.7392578125	15769.3173828125	14511.595703125	9538.072265625	18402.408203125	2598.331787109375	-1530.545166015625	13488.4697265625	41306.11328125	13893.45703125	14163.642578125	13551.94140625	16930.98046875	11858.1337890625	11178.2783203125	15570.267578125	13233.1474609375	16537.44140625	3861.343017578125	12914.537109375	16766.537109375	4671.46826171875	7187.18603515625	2806.865966796875	14599.5625	3262.507568359375	9379.4345703125	12644.4130859375	11066.7666015625	13028.6650390625	11249.00390625	26397.263671875	11194.427734375	9469.3525390625	11259.2470703125	9395.779296875	8096.0712890625	10477.0087890625	10573.5439453125	14878.236328125	12091.552734375	14736.8330078125	8778.5712890625	11796.4130859375	7563.6767578125	9511.5439453125	11811.091796875	9176.0078125	11864.9462890625	11691.6328125	12387.9296875	12400.470703125	11184.6591796875	12491.271484375	10420.4453125	13657.544921875	10429.5341796875	3476.194091796875	21102.828125	16479.703125	15362.326171875	11154.3779296875	14562.9052734375	11535.2626953125	12031.6669921875	16910.8203125	10152.4365234375	11638.1279296875	12893.7578125	11647.9599609375	10527.2490234375	11689.1591796875	9674.560546875	15350.9609375	13871.025390625	8565.4765625	9525.447265625	11218.283203125	11632.3349609375	11638.0595703125	11485.9052734375	10306.3544921875	12597.4111328125	11932.986328125	10408.8681640625	12823.0693359375	11695.0439453125	12194.8857421875	12493.53125	12517.763671875	10218.646484375	1939.5184326171875	15678.62890625	15098.939453125	14039.7353515625
2400	2700	13482.298828125	11934.1279296875	13476.48046875	14262.4033203125	10651.8271484375	9840.1591796875	15459.279296875	13052.4580078125	6654.36669921875	13184.0146484375	2521.9619140625	-1307.521240234375	12437.12109375	32442.755859375	13482.0849609375	13190.0498046875	12509.8798828125	14775.7529296875	10149.5185546875	10020.509765625	13530.244140625	13094.388671875	13761.255859375	7171.9619140625	10944.7734375	19946.572265625	4261.279296875	6993.27294921875	787.0036010742188	14359.1064453125	2883.7119140625	9299.9619140625	11614.6923828125	14017.3134765625	11454.9716796875	9664.0517578125	22973.662109375	9555.8955078125	8365.8818359375	9582.7744140625	9127.37109375	6617.96533203125	9086.271484375	9873.6591796875	12412.484375	10742.396484375	13372.1640625	6624.13720703125	10379.5849609375	6586.5986328125	7578.10498046875	9815.1669921875	7963.7578125	12289.7900390625	10355.51171875	11199.8916015625	12366.484375	9748.3408203125	11327.279296875	9659.58203125	12505.33203125	9215.8193359375	2281.182373046875	19125.54296875	15748.44921875	13659.1923828125	10754.4560546875	9830.29296875	10417.4560546875	10653.49609375	16291.349609375	8345.4140625	10415.7275390625	11376.2998046875	9802.3701171875	9722.34375	9511.7041015625	8232.8251953125	14273.359375	12449.048828125	7278.9228515625	8425.857421875	11208.3623046875	10082.9111328125	11088.5185546875	10838.8583984375	9390.94140625	12192.689453125	10386.650390625	9343.3720703125	10221.890625	10512.83984375	10980.0654296875	11580.1865234375	11537.771484375	9367.0810546875	1992.353515625	13289.0078125	9792.2333984375	12728.828125
