frame_start	frame_end	Left-Cerebral-White-Matter	Left-Cerebellum-White-Matter	Left-Cerebellum-Cortex	Left-Thalamus	Left-Caudate	Left-Putamen	Left-Pallidum	Brain-Stem	Left-Hippocampus	Left-Amygdala	CSF	Left-Accumbens-area	Left-VentralDC	Left-choroid-plexus	Right-Cerebral-White-Matter	Right-Cerebellum-White-Matter	Right-Cerebellum-Cortex	Right-Thalamus	Right-Caudate	Right-Putamen	Right-Pallidum	Right-Hippocampus	Right-Amygdala	Right-Accumbens-area	Right-VentralDC	Right-choroid-plexus	AirCavity	Skull	Vermis	Pons	CSF-ExtraCerebral	Head-ExtraCerebral	ctx-lh-bankssts	ctx-lh-caudalanteriorcingulate	ctx-lh-caudalmiddlefrontal	ctx-lh-cuneus	ctx-lh-entorhinal	ctx-lh-fusiform	ctx-lh-inferiorparietal	ctx-lh-inferiortemporal	ctx-lh-isthmuscingulate	ctx-lh-lateraloccipital	ctx-lh-lateralorbitofrontal	ctx-lh-lingual	ctx-lh-medialorbitofrontal	ctx-lh-middletemporal	ctx-lh-parahippocampal	ctx-lh-paracentral	ctx-lh-parsopercularis	ctx-lh-parsorbitalis	ctx-lh-parstriangularis	ctx-lh-pericalcarine	ctx-lh-postcentral	ctx-lh-posteriorcingulate	ctx-lh-precentral	ctx-lh-precuneus	ctx-lh-rostralanteriorcingulate	ctx-lh-rostralmiddlefrontal	ctx-lh-superiorfrontal	ctx-lh-superiorparietal	ctx-lh-superiortemporal	ctx-lh-supramarginal	ctx-lh-frontalpole	ctx-lh-temporalpole	ctx-lh-transversetemporal	ctx-lh-insula	ctx-rh-bankssts	ctx-rh-caudalanteriorcingulate	ctx-rh-caudalmiddlefrontal	ctx-rh-cuneus	ctx-rh-entorhinal	ctx-rh-fusiform	ctx-rh-inferiorparietal	ctx-rh-inferiortemporal	ctx-rh-isthmuscingulate	ctx-rh-lateraloccipital	ctx-rh-lateralorbitofrontal	ctx-rh-lingual	ctx-rh-medialorbitofrontal	ctx-rh-middletemporal	ctx-rh-parahippocampal	ctx-rh-paracentral	ctx-rh-parsopercularis	ctx-rh-parsorbitalis	ctx-rh-parstriangularis	ctx-rh-pericalcarine	ctx-rh-postcentral	ctx-rh-posteriorcingulate	ctx-rh-precentral	ctx-rh-precuneus	ctx-rh-rostralanteriorcingulate	ctx-rh-rostralmiddlefrontal	ctx-rh-superiorfrontal	ctx-rh-superiorparietal	ctx-rh-superiortemporal	ctx-rh-supramarginal	ctx-rh-frontalpole	ctx-rh-temporalpole	ctx-rh-transversetemporal	ctx-rh-insula
0	30	211.5048065185547	394.06976318359375	636.8798217773438	889.347412109375	792.7066040039062	976.2725830078125	371.7684020996094	634.9677734375	1111.1875	487.56036376953125	113.85612487792969	1610.51611328125	665.7838745117188	1021.8906860351562	205.0090789794922	397.85528564453125	653.5034790039062	818.4310302734375	977.1190185546875	866.4152221679688	204.51089477539062	1185.88232421875	1002.6004638671875	571.5808715820312	716.8656616210938	989.6903076171875	189.58023071289062	239.72586059570312	636.9889526367188	548.4629516601562	494.8584899902344	389.1209411621094	1242.5325927734375	817.5827026367188	1254.6168212890625	1232.563232421875	1699.5828857421875	909.9528198242188	764.2199096679688	973.9778442382812	1500.279541015625	871.8804931640625	1176.6826171875	1271.715087890625	856.3667602539062	922.1775512695312	598.5458984375	853.0595092773438	1104.1661376953125	1386.56298828125	1413.5277099609375	1980.9776611328125	901.55810546875	1079.26953125	1234.61376953125	930.534423828125	1700.3211669921875	1109.49267578125	1040.4205322265625	1018.2181396484375	1107.4273681640625	1007.0463256835938	1253.3466796875	1051.610595703125	2768.009521484375	1108.5546875	681.1151123046875	1732.08642578125	862.0745239257812	1031.4791259765625	1323.9647216796875	577.8101196289062	885.28173828125	888.677001953125	1282.4742431640625	940.71630859375	991.5631713867188	1613.76123046875	1046.2890625	828.710693359375	916.2754516601562	1317.1397705078125	861.03759765625	1115.237060546875	1201.7275390625	2087.919677734375	1027.0384521484375	1379.750732421875	1007.4137573242188	1035.4144287109375	1268.1553955078125	1078.14208984375	1001.2655639648438	1009.0856323242188	1077.13037109375	1004.1436157226562	672.7274780273438	950.1689453125	2252.31787109375	1362.5831298828125
30	60	1480.8812255859375	2277.412841796875	6314.7744140625	6921.9970703125	7175.2138671875	8820.89453125	2827.500732421875	3930.241455078125	6233.40673828125	2880.093994140625	754.6455688476562	6794.15625	4813.3701171875	9913.1279296875	1446.0556640625	2574.764404296875	6061.423828125	6318.2783203125	7343.09375	7996.95849609375	3583.1162109375	5128.681640625	4753.13818359375	8435.896484375	5471.00048828125	13307.9501953125	1197.7716064453125	1999.756591796875	6993.93994140625	4315.30322265625	1323.462646484375	2735.879638671875	8795.48828125	11348.576171875	10471.123046875	9736.373046875	9342.8916015625	6511.69580078125	7253.29638671875	7891.5078125	10631.0126953125	8602.2529296875	8652.3740234375	9109.4599609375	6799.53564453125	6759.88037109375	7621.205078125	9343.123046875	8953.8916015625	10993.6416015625	10980.9287109375	19017.818359375	7947.4755859375	10396.619140625	9239.5419921875	10175.0263671875	10606.4814453125	9710.595703125	9366.5634765625	8701.341796875	7613.0068359375	8614.880859375	7594.3837890625	6653.36669921875	15834.232421875	8110.162109375	8632.1123046875	9770.6376953125	9557.208984375	12261.6669921875	6796.474609375	6312.4150390625	8184.380859375	7002.759765625	7630.212890625	9883.076171875	7823.828125	10271.2470703125	6198.90478515625	6618.791015625	5046.75048828125	9681.2763671875	9437.306640625	10575.5859375	8856.62109375	17932.62890625	8802.66015625	9894.86328125	8510.537109375	9396.6171875	9679.142578125	9592.3193359375	9460.9345703125	9247.912109375	7376.64599609375	9422.4873046875	7848.90771484375	6265.47314453125	18992.65625	8619.7275390625
60	90	3354.018798828125	4783.02392578125	12926.0712890625	15043.8759765625	16083.568359375	17767.5546875	6809.41845703125	7536.55908203125	11871.5078125	7567.33642578125	98.60196685791016	14461.943359375	10351.361328125	21256.46875	3021.6240234375	5448.61181640625	12542.44921875	14232.7109375	14995.380859375	15192.9541015625	5850.56396484375	12178.390625	9852.75390625	15040.0693359375	9358.1103515625	27521.28515625	2237.50732421875	3876.221435546875	16933.734375	8747.419921875	1151.971435546875	5478.9990234375	19169.181640625	18991.998046875	20558.57421875	23480.849609375	20335.259765625	12930.736328125	15867.5029296875	15548.966796875	18477.46484375	17701.701171875	18134.638671875	19959.494140625	13052.234375	14274.1640625	13728.9091796875	18858.73828125	20522.947265625	21422.83984375	22016.9140625	32565.6796875	18218.892578125	23452.337890625	20717.45703125	21524.103515625	19217.484375	22090.517578125	20436.39453125	18840.201171875	15792.0537109375	17840.8359375	18233.0703125	14096.9130859375	35290.20703125	13061.4111328125	18256.376953125	23861.91015625	21840.763671875	25174.75	13113.927734375	13248.9873046875	17863.552734375	16254.8740234375	21231.23828125	20069.90625	15421.837890625	21347.26171875	13964.072265625	14591.091796875	9604.1494140625	20715.38671875	18990.755859375	19823.42578125	20183.5078125	37638.23046875	18937.15234375	18701.60546875	19132.84765625	20573.751953125	18925.38671875	21018.05078125	20879.728515625	20060.80859375	15047.123046875	20024.56640625	18804.783203125	13294.9599609375	33952.98828125	16133.1962890625
90	120	5203.91796875	9164.2685546875	19478.60546875	22947.466796875	22899.150390625	25421.421875	9099.9814453125	10876.837890625	17430.060546875	13791.5029296875	1110.28125	27632.3046875	16168.9462890625	8943.068359375	4696.21484375	8817.6787109375	19430.724609375	22003.232421875	23621.970703125	26420.697265625	9782.7529296875	16911.216796875	15068.33203125	22457.52734375	14840.9052734375	23137.642578125	3441.713134765625	5946.0107421875	21361.693359375	12888.0517578125	463.5390625	8275.46875	28321.36328125	29602.296875	34557.05078125	38301.0625	28536.904296875	20703.19140625	25434.791015625	26125.251953125	30420.3046875	28370.255859375	27116.359375	30058.345703125	23887.537109375	22597.28125	22644.923828125	28154.498046875	29220.546875	32774.453125	33533.6328125	53309.078125	29078.099609375	31754.12109375	31454.052734375	29777.97265625	25649.951171875	33828.0390625	30836.302734375	29948.580078125	23599.115234375	27243.8125	27214.177734375	20384.330078125	55111.25	24181.11328125	27997.30078125	32830.890625	33150.01953125	38222.37109375	18228.26953125	20174.8203125	28817.10546875	25826.12890625	31552.923828125	32135.435546875	23058.189453125	31033.798828125	21415.67578125	24514.005859375	20786.94921875	33810.83984375	30887.150390625	33773.76953125	31286.1328125	53785.0078125	31692.923828125	30849.146484375	29992.64453125	33522.6015625	29582.130859375	33626.46875	31501.873046875	31171.369140625	23432.3359375	30988.427734375	29091.1640625	20123.642578125	47660.4609375	21600.603515625
120	150	5856.23291015625	10907.9482421875	22920.748046875	26192.09765625	30485.564453125	31636.12890625	11011.7587890625	12062.091796875	19782.259765625	14020.5126953125	67.92162322998047	25304.431640625	17671.439453125	16429.951171875	5514.4482421875	10619.6953125	22295.091796875	25467.220703125	28004.158203125	33702.0859375	11237.365234375	19626.353515625	17568.658203125	15940.4111328125	18245.974609375	34366.77734375	3706.560791015625	6663.43310546875	28454.892578125	16438.517578125	-1544.7818603515625	9503.2265625	34176.47265625	37618.81640625	39297.08984375	44339.05078125	29940.890625	25318.404296875	32083.548828125	31677.150390625	38385.94140625	34713.8125	32042.052734375	35018.60546875	27287.650390625	28959.314453125	28662.646484375	38656.9453125	36317.4375	43180.109375	41965.74609375	68665.7109375	38683.26171875	37540.0859375	38035.48828125	37747.91796875	35885.85546875	40985.86328125	38573.19140625	37241.94921875	28500.4140625	32000.224609375	29396.486328125	23361.779296875	52037.59765625	25371.484375	36735.75390625	35631.16796875	43191.17578125	44514.3828125	19847.28125	25753.904296875	34925.0546875	31843.7421875	33475.77734375	39266.5546875	28178.16015625	38512.1015625	24945.48828125	28349.603515625	20966.8359375	39555.33984375	38525.5234375	40087.66796875	36215.48046875	67304.265625	40116.90234375	37509.109375	36186.69921875	38791.3984375	32803.75	40760.5546875	38921.8984375	39404.71484375	28210.10546875	37488.10546875	34386.953125	21755.318359375	51675.87109375	24627.291015625
150	180	6260.8466796875	10881.2666015625	22633.32421875	26864.923828125	29999.900390625	32482.994140625	9476.8388671875	10707.8154296875	17559.169921875	15379.86328125	-1247.4244384765625	29509.34375	19206.109375	18183.017578125	5803.4482421875	10238.470703125	22166.650390625	24836.5546875	28669.462890625	31349.19921875	9823.947265625	18593.71484375	16477.81640625	24918.015625	18814.595703125	36357.65625	3121.0634765625	6774.482421875	27427.27734375	16070.775390625	-2259.655517578125	9592.6162109375	34115.78515625	40583.04296875	39919.015625	40126.7734375	28192.396484375	24053.716796875	31086.5703125	32715.404296875	36155.36328125	34464.37109375	31920.763671875	33043.49609375	25635.041015625	28081.431640625	30333.12109375	37779.2890625	36510.234375	44235.2265625	41044.171875	67434.671875	37894.72265625	35966.8203125	36176.69921875	38457.19921875	31047.78515625	41278.62890625	37602.1015625	37625.53515625	29074.078125	32286.556640625	27901.087890625	24180.7578125	52547.046875	27260.294921875	32810.73046875	35585.546875	40655.37890625	43803.8984375	21424.2109375	24190.640625	36140.07421875	31464.744140625	34848.33984375	38976.40625	29029.595703125	35884.2109375	26018.091796875	29191.70703125	22588.5234375	38117.84375	37157.20703125	40584.1796875	36439.0078125	63077.4921875	39650.921875	39081.0703125	36052.64453125	40174.48046875	31348.8203125	40392.9296875	39055.3828125	40284.51171875	27704.46484375	37055.82421875	40247.65234375	20982.04296875	52414.12890625	26070.81640625
180	240	6372.8603515625	10199.0107421875	21788.357421875	25859.013671875	27585.072265625	28773.56640625	12045.7548828125	11873.7041015625	17909.931640625	15916.23828125	-681.4871215820312	26258.95703125	18084.939453125	16245.76171875	5870.05859375	10507.8408203125	21375.861328125	24542.13671875	26154.908203125	30071.013671875	10998.603515625	17034.537109375	18735.048828125	24908.2578125	19578.984375	16451.072265625	2762.484619140625	6788.69384765625	26980.322265625	16629.0234375	-2605.75	9377.3037109375	28958.79296875	36224.5546875	38715.109375	38455.22265625	29598.1484375	24066.0	31815.748046875	30895.931640625	34155.73046875	32559.71875	30572.25390625	32123.283203125	26733.826171875	28019.201171875	26465.111328125	37486.25	34525.859375	41470.9296875	37594.75390625	63828.5703125	34733.16015625	34389.3671875	36480.7578125	36167.77734375	31972.994140625	39631.4296875	37136.1796875	36266.88671875	27694.21875	31055.466796875	27253.5546875	23286.48046875	54603.8671875	25101.599609375	33206.125	34748.7421875	39974.984375	42629.48046875	20741.970703125	24303.693359375	34306.91796875	31010.6875	33955.875	38313.17578125	27445.9296875	34357.68359375	22922.533203125	28520.10546875	20565.705078125	38766.82421875	36257.484375	37343.05078125	36661.3515625	57836.6953125	38623.4453125	36694.0703125	36200.484375	37197.89453125	30238.103515625	39186.1796875	37118.375	38299.671875	26660.5	35511.6015625	35251.82421875	20074.376953125	46771.44140625	24581.48046875
240	300	6563.57958984375	10101.5576171875	20580.525390625	24326.568359375	26520.654296875	29970.275390625	11483.3515625	11472.541015625	15395.1640625	16678.392578125	-1412.4718017578125	18314.431640625	18255.572265625	15047.353515625	6048.6826171875	9304.181640625	20472.39453125	21873.306640625	25770.9296875	28765.1640625	10844.677734375	16429.091796875	17231.552734375	26607.5859375	19500.658203125	17455.130859375	2335.553955078125	6936.65283203125	22426.21484375	15973.974609375	-2879.431640625	9132.169921875	28584.349609375	35592.03515625	36425.92578125	38332.3046875	30883.794921875	23469.248046875	28429.103515625	29885.779296875	32831.05859375	29694.98828125	28382.556640625	29893.40625	24193.6015625	26918.201171875	26189.70703125	34785.3203125	31732.669921875	38051.32421875	35873.06640625	55148.72265625	33001.30859375	34002.65234375	34388.40625	33127.015625	28152.6484375	36599.125	34827.49609375	34695.29296875	25560.978515625	29686.046875	22042.6015625	22957.8828125	47412.3359375	23913.388671875	30059.154296875	31540.248046875	36729.58203125	37778.74609375	20092.2421875	23287.513671875	33018.3359375	30264.28125	32021.376953125	34876.8515625	25295.892578125	32340.42578125	23678.275390625	27352.67578125	20102.3515625	35864.6484375	31975.587890625	33965.2421875	36188.0	49710.13671875	35419.7734375	32039.3984375	32811.0078125	35869.45703125	29820.6484375	35713.1015625	34714.421875	35938.32421875	25526.400390625	32625.892578125	32154.947265625	19856.87890625	41793.0	23870.921875
300	360	6877.75732421875	10018.423828125	18809.08203125	22611.087890625	23332.638671875	27381.68359375	12896.28515625	10623.947265625	14355.0244140625	17210.921875	-884.6703491210938	26501.720703125	17212.80078125	6559.91455078125	6294.43310546875	10368.0048828125	18549.880859375	21520.951171875	24316.083984375	26891.869140625	10178.9462890625	15775.6044921875	17607.9921875	23186.62890625	18217.767578125	3377.65576171875	2070.634033203125	7010.12109375	20404.859375	14707.1455078125	-2695.742919921875	8949.7548828125	26721.8046875	32778.796875	31868.759765625	34127.98828125	30359.93359375	22152.001953125	26482.78515625	28824.73828125	31539.375	27183.40234375	26670.0703125	26954.146484375	21185.306640625	25270.896484375	27231.080078125	31088.29296875	27984.26171875	35491.3203125	31259.05078125	44086.11328125	29682.15625	28651.015625	30674.82421875	30060.501953125	25087.28125	33650.796875	32195.556640625	32259.806640625	23991.955078125	27254.90234375	21214.541015625	20655.8203125	41661.7109375	23754.2578125	26202.92578125	30177.375	32738.623046875	34566.2578125	19847.720703125	22903.173828125	29999.876953125	28150.005859375	30438.359375	31926.6484375	24252.328125	30695.181640625	20754.08203125	25887.767578125	19929.537109375	33294.17578125	28224.64453125	32066.8359375	32085.802734375	42634.1328125	32788.78515625	29554.4453125	31016.763671875	31967.76953125	28677.94921875	32860.88671875	32263.68359375	32975.95703125	24187.666015625	29663.359375	31296.755859375	18294.33984375	32100.576171875	23219.537109375
360	480	7106.7236328125	10009.1337890625	16617.2890625	20539.826171875	20278.59375	23798.90625	12712.470703125	10020.8115234375	13596.5693359375	15830.5908203125	-1202.3875732421875	21750.1015625	17429.11328125	113.82675170898438	6508.771484375	9395.72265625	16648.837890625	20630.541015625	20968.181640625	23597.396484375	12421.529296875	13372.515625	16729.07421875	24997.548828125	16553.134765625	8709.126953125	1733.9716796875	7083.14794921875	18732.078125	14046.3818359375	-2512.595458984375	8296.1044921875	22256.283203125	26312.82421875	26599.115234375	29511.392578125	27058.1953125	20692.876953125	22693.6953125	25969.2109375	24815.033203125	23235.955078125	23364.98828125	23960.58984375	18500.578125	22315.544921875	25734.833984375	27532.001953125	24863.5	29070.287109375	28568.720703125	37696.140625	25572.98828125	26531.263671875	26973.638671875	27094.9921875	24199.28515625	29270.076171875	27480.63671875	27283.404296875	21924.984375	23497.52734375	18596.560546875	20318.8125	37228.4140625	21256.337890625	24627.775390625	27059.4921875	28702.9296875	29805.466796875	18137.21875	21044.59375	26722.001953125	25248.5	27210.4453125	28377.67578125	21051.064453125	25494.302734375	17597.11328125	22814.712890625	17856.646484375	29916.060546875	26171.04296875	28634.931640625	27772.03125	37647.6796875	28265.185546875	27363.2109375	27193.388671875	28476.8046875	25461.79296875	28893.52734375	28233.833984375	28835.1171875	21333.111328125	26674.990234375	27900.837890625	16426.53125	30085.296875	19996.111328125
480	600	7257.73095703125	9201.330078125	14346.8134765625	17759.443359375	16454.36328125	19194.916015625	12390.2734375	9189.13671875	12163.4443359375	14053.2177734375	-908.3043212890625	20777.46484375	15657.759765625	1230.088623046875	6719.58544921875	9183.0703125	14166.908203125	16309.8349609375	17759.484375	19104.416015625	11660.9873046875	11591.4794921875	15639.5068359375	21490.955078125	16058.3837890625	2122.751220703125	1586.0040283203125	7224.47412109375	15926.9921875	12934.775390625	-2023.8031005859375	7763.87548828125	19185.853515625	24780.537109375	21822.462890625	24730.45703125	24233.51171875	17602.638671875	19003.4921875	22426.0546875	20803.853515625	19695.716796875	19848.443359375	19273.861328125	16163.240234375	18892.8828125	21023.8046875	23262.046875	21385.083984375	24287.865234375	23642.45703125	27474.052734375	20959.314453125	21464.162109375	22789.72265625	22436.224609375	20745.458984375	24095.373046875	22706.369140625	22663.068359375	18333.986328125	19333.4296875	12957.046875	18369.18359375	29851.45703125	18559.134765625	20338.892578125	21888.1796875	24615.220703125	25036.7734375	16815.951171875	18171.486328125	22214.3359375	22149.357421875	23090.2265625	23851.306640625	16808.818359375	20256.392578125	13486.8779296875	19655.17578125	14148.8505859375	24388.486328125	21024.931640625	23366.466796875	22705.505859375	27799.833984375	23143.998046875	23166.78125	22839.03125	23822.392578125	22449.90625	24007.21875	23540.3828125	23910.845703125	18007.421875	22865.115234375	24031.375	14087.9384765625	24933.03515625	18190.837890625
600	900	7615.83447265625	9001.8427734375	11316.8212890625	14668.2197265625	13133.115234375	16126.6396484375	11803.3896484375	8548.279296875	9083.56640625	14198.099609375	-1121.069580078125	17353.490234375	15054.6494140625	426.2427978515625	7166.48193359375	9140.7275390625	11175.9248046875	14194.6513671875	13120.388671875	15882.9736328125	10500.640625	9500.87890625	14694.775390625	16834.263671875	14349.1142578125	1793.631103515625	1016.1508178710938	7472.2373046875	13721.962890625	11551.2490234375	-1355.240478515625	7232.23583984375	14947.2890625	20066.3984375	16970.1015625	20300.798828125	20422.63671875	15329.1474609375	15097.4169921875	19013.455078125	17909.1015625	15515.4189453125	15904.138671875	15516.005859375	13116.15234375	15498.98828125	18122.0625	19202.337890625	16164.373046875	19338.7890625	19282.65625	19495.318359375	16367.650390625	17043.28515625	17799.056640625	18260.580078125	17003.560546875	18619.171875	18130.078125	17409.677734375	14957.5888671875	15506.373046875	11912.732421875	15535.21484375	23481.029296875	16111.11328125	15378.458984375	18711.48828125	18611.443359375	20370.13671875	14754.3583984375	15736.931640625	17376.119140625	18398.91796875	17953.158203125	19589.625	13633.1455078125	16751.767578125	10684.5205078125	15908.919921875	14158.4970703125	20508.822265625	16790.974609375	19160.818359375	18443.72265625	20857.46484375	17918.59375	17211.240234375	17942.537109375	19020.3125	17673.646484375	18528.376953125	18633.830078125	18746.03515625	14897.7333984375	18030.775390625	19246.033203125	14372.923828125	18329.00390625	15371.5791015625
900	1200	7768.05126953125	8290.310546875	8997.076171875	11725.5048828125	10219.134765625	12184.49609375	12662.5322265625	6888.4951171875	7285.7919921875	11179.119140625	-632.1203002929688	12806.18359375	12695.4697265625	2239.078369140625	7328.103515625	8421.1318359375	8839.6552734375	11776.7119140625	9655.779296875	11999.5322265625	10880.1865234375	7682.89990234375	12312.826171875	14713.6904296875	12535.259765625	-3857.9833984375	444.7720031738281	7724.59375	10427.505859375	10543.1357421875	-682.0725708007812	6796.337890625	12618.4736328125	15402.0419921875	13155.0322265625	15051.9150390625	18200.251953125	13323.6923828125	11494.435546875	16060.671875	13366.8095703125	11864.7255859375	13362.3779296875	11948.56640625	9388.1015625	12544.818359375	16702.498046875	14511.591796875	13051.162109375	15043.9365234375	14797.1796875	14585.7041015625	12507.369140625	14332.0078125	14277.23046875	13975.001953125	13818.4462890625	14310.9306640625	14166.2734375	13585.9013671875	11852.33203125	12173.76953125	9663.12109375	12478.693359375	18135.951171875	13101.7802734375	12811.4833984375	14735.2333984375	14416.4287109375	16688.96875	12452.7119140625	12935.734375	13592.87890625	15543.775390625	14799.3876953125	15819.1298828125	10902.9970703125	13202.4619140625	8189.74560546875	12612.2607421875	10400.3828125	16376.6875	13319.5849609375	15127.830078125	14339.345703125	16688.67578125	13936.609375	13776.271484375	14204.9951171875	15262.3271484375	13536.15625	14807.767578125	15079.6357421875	14689.1494140625	11696.7705078125	14111.83203125	16004.2451171875	11925.9541015625	17230.84375	12673.4306640625
1200	1500	7854.0322265625	8359.03125	7508.9873046875	9425.0078125	7666.20361328125	9477.333984375	11806.609375	5763.794921875	6404.75927734375	10222.8798828125	-507.91192626953125	10769.8193359375	10839.9501953125	5715.52099609375	7452.67822265625	7956.4306640625	7328.80078125	9625.5419921875	7399.32177734375	9716.435546875	9951.09375	6671.5419921875	11128.087890625	9358.923828125	10799.4462890625	1025.361572265625	298.7125244140625	7859.45166015625	8530.5068359375	9699.0849609375	-92.27687072753906	6570.9697265625	10389.1123046875	13099.28125	11149.955078125	13327.7724609375	15870.3525390625	11454.89453125	9464.1611328125	13977.8037109375	11122.1171875	9716.185546875	11225.5283203125	10613.7666015625	7654.1923828125	10863.001953125	14158.2294921875	12150.6962890625	11038.267578125	11761.666015625	12674.5419921875	12321.5126953125	10270.884765625	11628.9541015625	11488.623046875	11840.2763671875	11839.833984375	11907.9814453125	11824.2119140625	10898.568359375	9656.9130859375	10000.1279296875	7601.7939453125	11087.935546875	15589.240234375	11481.1953125	12255.3603515625	11833.03515625	12557.97265625	14900.939453125	10069.3486328125	11768.2666015625	11307.8916015625	13529.8056640625	12115.06640625	13468.3251953125	9236.26953125	11641.2099609375	7017.30322265625	10152.4755859375	8794.849609375	13388.3564453125	11504.8271484375	12448.109375	12274.9853515625	12736.115234375	11088.966796875	11697.3916015625	11195.0068359375	13060.3603515625	12801.0859375	12082.00390625	12429.2431640625	12279.3251953125	9651.626953125	11686.2001953125	14097.318359375	9645.0751953125	13346.9658203125	11013.32421875
1500	1800	7836.69873046875	7392.216796875	6545.0029296875	8470.2294921875	5851.48046875	8333.50390625	8942.2177734375	5009.95703125	5006.8818359375	8254.9443359375	123.55025482177734	5389.71337890625	10126.0166015625	4530.41357421875	7423.35498046875	7390.2109375	6409.8310546875	8234.859375	6915.0966796875	8495.0771484375	8194.8203125	5752.052734375	8235.1826171875	8859.05078125	9560.6552734375	-3203.328125	-131.647216796875	7896.9765625	6820.72998046875	8712.0244140625	446.518310546875	6478.14794921875	8528.1591796875	10471.8203125	9537.04296875	11853.46484375	13983.697265625	10446.1005859375	8253.708984375	12863.01171875	10597.03515625	8455.798828125	10228.001953125	9224.1708984375	6460.79296875	9023.154296875	11887.8583984375	11218.59765625	9268.9140625	11550.724609375	10266.8046875	8762.736328125	8620.71875	9279.005859375	10125.0810546875	10998.2587890625	10468.4501953125	10147.4931640625	9941.916015625	9522.408203125	8633.1630859375	8860.83984375	7214.6201171875	8928.5048828125	13365.99609375	10897.46875	10508.810546875	10494.4794921875	10445.9287109375	12492.7822265625	10123.328125	10817.0390625	9946.0625	12504.1328125	11510.513671875	11801.0615234375	7550.03857421875	10513.388671875	6858.5517578125	8508.4658203125	7256.25830078125	12510.716796875	10454.33203125	12097.98046875	10774.310546875	12031.4423828125	10285.94140625	10461.79296875	9934.6279296875	11594.7802734375	10966.9912109375	10647.8935546875	11017.1630859375	10521.2021484375	8512.37890625	10238.0361328125	12062.29296875	8016.537109375	11072.23046875	9809.6181640625
1800	2100	7762.99365234375	7092.61669921875	5675.3408203125	7016.244140625	5191.65380859375	6965.1669921875	9703.8720703125	4090.076171875	4378.96142578125	7430.65185546875	133.3134002685547	5675.6376953125	8804.416015625	2816.06201171875	7378.41845703125	6910.7705078125	5521.5673828125	7184.13134765625	5161.2373046875	7432.60107421875	7723.13818359375	4424.84765625	7828.81689453125	5845.91943359375	9015.59765625	1331.5938720703125	-190.7559814453125	7900.7568359375	6695.80078125	8287.5361328125	857.6602172851562	6231.53271484375	8144.55126953125	8673.8212890625	8159.3408203125	10741.33203125	11766.15234375	10101.767578125	7458.9560546875	12008.779296875	8896.470703125	7433.92431640625	8886.6337890625	9040.78515625	5289.81494140625	8033.615234375	12376.630859375	8647.453125	8937.0947265625	10334.7939453125	9617.345703125	7921.40771484375	7681.421875	9286.5087890625	8606.4541015625	9276.857421875	9097.609375	8964.123046875	8807.3154296875	8253.9091796875	7580.2919921875	7914.41845703125	5210.5595703125	8246.6787109375	12706.68359375	9322.0595703125	9680.2197265625	10305.626953125	9227.2685546875	10566.0361328125	8015.85888671875	10094.1591796875	8593.2724609375	11070.5380859375	9940.7158203125	10313.939453125	7279.2236328125	9700.3037109375	6718.4873046875	7907.81591796875	6147.228515625	10360.5556640625	9628.1884765625	10589.9365234375	9047.01171875	12105.9130859375	8456.4365234375	8878.869140625	8680.177734375	10544.849609375	9833.0224609375	9027.9736328125	9662.0302734375	9334.3916015625	7322.70458984375	9051.54296875	10489.376953125	6792.94287109375	11269.822265625	8223.8203125
2100	2400	7683.04052734375	6591.70751953125	5025.76220703125	6340.12890625	4062.83642578125	6555.84423828125	6969.556640625	4134.46337890625	4407.06689453125	5536.42724609375	-166.9610137939453	3669.91796875	8086.0400390625	6607.23095703125	7229.25	6511.8671875	4859.05322265625	6526.76171875	4726.0908203125	6130.2158203125	6709.33984375	4763.3193359375	6453.064453125	4526.0458984375	7286.1865234375	448.6727600097656	-291.76153564453125	7873.29736328125	6741.947265625	7381.5439453125	1061.1871337890625	6056.111328125	6792.47802734375	9071.3056640625	7025.65625	9117.310546875	11508.3505859375	9224.0546875	7053.52294921875	11423.931640625	8536.341796875	6716.2255859375	7855.8154296875	8344.6103515625	5194.05419921875	7205.0625	9405.201171875	7826.646484375	7683.142578125	9101.80078125	9297.0185546875	7333.80517578125	6560.95947265625	6712.78564453125	7659.39697265625	8793.7763671875	7873.12744140625	7963.38427734375	7857.32421875	7527.65283203125	7001.17236328125	6934.94970703125	4151.8466796875	7753.87109375	10262.7294921875	8628.599609375	9188.0263671875	9357.642578125	8159.7431640625	10083.6865234375	8440.078125	9731.7158203125	8243.939453125	10286.03125	6625.17919921875	9913.1455078125	6600.29443359375	9399.0615234375	5194.75048828125	7112.96142578125	6713.06689453125	9166.6533203125	8073.39892578125	9521.494140625	8657.0400390625	9928.599609375	7608.70703125	9203.466796875	7759.3642578125	9874.9951171875	9286.3271484375	8403.7939453125	8691.974609375	8604.5078125	6616.52734375	8421.8837890625	10012.220703125	5972.14404296875	9727.4501953125	7983.6455078125
