frame_start	frame_end	Left-Cerebral-White-Matter	Left-Cerebellum-White-Matter	Left-Cerebellum-Cortex	Left-Thalamus	Left-Caudate	Left-Putamen	Left-Pallidum	Brain-Stem	Left-Hippocampus	Left-Amygdala	CSF	Left-Accumbens-area	Left-VentralDC	Left-choroid-plexus	Right-Cerebral-White-Matter	Right-Cerebellum-White-Matter	Right-Cerebellum-Cortex	Right-Thalamus	Right-Caudate	Right-Putamen	Right-Pallidum	Right-Hippocampus	Right-Amygdala	Right-Accumbens-area	Right-VentralDC	Right-choroid-plexus	AirCavity	Skull	Vermis	Pons	CSF-ExtraCerebral	Head-ExtraCerebral	ctx-lh-bankssts	ctx-lh-caudalanteriorcingulate	ctx-lh-caudalmiddlefrontal	ctx-lh-cuneus	ctx-lh-entorhinal	ctx-lh-fusiform	ctx-lh-inferiorparietal	ctx-lh-inferiortemporal	ctx-lh-isthmuscingulate	ctx-lh-lateraloccipital	ctx-lh-lateralorbitofrontal	ctx-lh-lingual	ctx-lh-medialorbitofrontal	ctx-lh-middletemporal	ctx-lh-parahippocampal	ctx-lh-paracentral	ctx-lh-parsopercularis	ctx-lh-parsorbitalis	ctx-lh-parstriangularis	ctx-lh-pericalcarine	ctx-lh-postcentral	ctx-lh-posteriorcingulate	ctx-lh-precentral	ctx-lh-precuneus	ctx-lh-rostralanteriorcingulate	ctx-lh-rostralmiddlefrontal	ctx-lh-superiorfrontal	ctx-lh-superiorparietal	ctx-lh-superiortemporal	ctx-lh-supramarginal	ctx-lh-frontalpole	ctx-lh-temporalpole	ctx-lh-transversetemporal	ctx-lh-insula	ctx-rh-bankssts	ctx-rh-caudalanteriorcingulate	ctx-rh-caudalmiddlefrontal	ctx-rh-cuneus	ctx-rh-entorhinal	ctx-rh-fusiform	ctx-rh-inferiorparietal	ctx-rh-inferiortemporal	ctx-rh-isthmuscingulate	ctx-rh-lateraloccipital	ctx-rh-lateralorbitofrontal	ctx-rh-lingual	ctx-rh-medialorbitofrontal	ctx-rh-middletemporal	ctx-rh-parahippocampal	ctx-rh-paracentral	ctx-rh-parsopercularis	ctx-rh-parsorbitalis	ctx-rh-parstriangularis	ctx-rh-pericalcarine	ctx-rh-postcentral	ctx-rh-posteriorcingulate	ctx-rh-precentral	ctx-rh-precuneus	ctx-rh-rostralanteriorcingulate	ctx-rh-rostralmiddlefrontal	ctx-rh-superiorfrontal	ctx-rh-superiorparietal	ctx-rh-superiortemporal	ctx-rh-supramarginal	ctx-rh-frontalpole	ctx-rh-temporalpole	ctx-rh-transversetemporal	ctx-rh-insula
0	30	454.2727355957031	480.73602294921875	578.1451416015625	668.8892822265625	487.8830261230469	654.3939208984375	522.1492309570312	530.4802856445312	781.2200317382812	522.1353759765625	336.683349609375	807.5470581054688	586.4829711914062	465.4539489746094	448.92608642578125	523.4447021484375	599.027099609375	633.3619995117188	571.063720703125	621.2634887695312	410.531005859375	859.2355346679688	596.2339477539062	506.1693420410156	606.281494140625	449.57763671875	236.6494140625	290.5112609863281	541.6206665039062	521.1431884765625	604.2013549804688	339.9970703125	722.6068725585938	708.822265625	717.7559204101562	705.9503173828125	813.8482055664062	658.7713623046875	523.4948120117188	642.8905639648438	832.2437133789062	560.4518432617188	681.7386474609375	739.788818359375	618.62060546875	685.0615234375	570.0001831054688	625.6427001953125	675.5451049804688	667.4356079101562	749.5556030273438	779.2399291992188	615.564453125	739.798583984375	735.1155395507812	705.4317016601562	860.687255859375	650.5013427734375	665.4819946289062	637.5582275390625	693.6239013671875	653.4952392578125	584.0656127929688	612.7364501953125	1175.6629638671875	719.9200439453125	585.0328979492188	910.685791015625	587.7149658203125	666.5101928710938	744.15478515625	562.1143188476562	602.8858032226562	599.7477416992188	772.4049072265625	567.625244140625	612.4069213867188	833.3146362304688	686.2468872070312	619.5146484375	643.7747802734375	745.0769653320312	631.6277465820312	684.1343994140625	692.5977783203125	887.1544189453125	645.2442016601562	802.5728149414062	656.3377075195312	685.000732421875	811.6165771484375	639.3211059570312	656.3973999023438	647.3187255859375	693.9471435546875	646.8104248046875	493.0552062988281	586.2005615234375	935.1389770507812	793.3511962890625
30	60	3476.17431640625	3687.119140625	5350.88330078125	5090.9013671875	3796.07177734375	5714.83349609375	3933.39697265625	3669.5712890625	4491.5927734375	3202.506103515625	2492.849365234375	4859.3115234375	3934.06396484375	3392.685302734375	3481.36572265625	3826.1162109375	5181.4775390625	4846.37060546875	4164.8994140625	5417.8388671875	4205.14599609375	3933.4765625	3639.08935546875	4747.38720703125	4187.302734375	3475.23779296875	1677.9808349609375	2213.367431640625	5504.83740234375	3836.028076171875	3974.038818359375	2389.45166015625	5300.3984375	5961.6572265625	5449.888671875	5870.52490234375	4931.6259765625	4863.041015625	4461.17626953125	4968.01123046875	5884.578125	4798.75634765625	4799.2919921875	5511.974609375	4181.64599609375	4704.05517578125	5231.02099609375	4971.40478515625	5082.2939453125	5398.09228515625	5603.8369140625	6458.69921875	4430.814453125	6104.1572265625	5038.90380859375	5970.6455078125	5689.71435546875	5037.57080078125	5082.82373046875	4594.72265625	4826.53125	5022.0400390625	4135.60400390625	4150.59423828125	6418.0361328125	5126.3427734375	4775.65087890625	5742.52587890625	5020.78759765625	6179.921875	4419.13623046875	4776.00146484375	4700.99169921875	4553.181640625	5177.244140625	5003.72802734375	4459.70068359375	5617.08740234375	4194.5546875	4437.47900390625	4104.0908203125	4831.6474609375	5021.27294921875	5380.38134765625	5016.54541015625	7127.5029296875	4529.76611328125	5983.701171875	4649.984375	5574.1611328125	5656.58056640625	5003.47119140625	5076.13818359375	4765.23095703125	4692.4111328125	5057.15234375	3954.760498046875	4035.447998046875	7009.755859375	5238.57080078125
60	90	7363.0263671875	7537.24462890625	10928.47265625	10767.763671875	8718.2265625	11595.03125	8339.1494140625	7241.001953125	8967.3994140625	6987.66162109375	4937.3994140625	9720.1044921875	8374.0869140625	7106.2880859375	7246.64990234375	8097.69873046875	10668.818359375	10422.759765625	8311.060546875	10235.9853515625	7590.45361328125	8510.203125	7524.56982421875	10130.298828125	7772.43310546875	6976.3076171875	3328.781005859375	4324.67724609375	11621.4130859375	7575.0576171875	7720.14453125	4747.97119140625	11197.5166015625	11038.974609375	10693.6650390625	12693.419921875	9861.962890625	9854.076171875	9341.3515625	9642.173828125	11190.8310546875	9694.9697265625	9689.560546875	11528.5322265625	8510.7421875	9639.4716796875	9786.5908203125	10076.80859375	10857.0498046875	10611.4794921875	11180.484375	12453.5634765625	9636.4677734375	13371.8623046875	10885.666015625	12266.60546875	10868.5537109375	10952.607421875	10710.1875	9560.44921875	9735.693359375	10027.822265625	8597.349609375	8723.7412109375	14254.4462890625	9277.009765625	9940.107421875	12508.716796875	11069.95703125	12995.576171875	8411.2490234375	10024.705078125	9713.4228515625	9973.4130859375	11437.806640625	10127.837890625	8985.24609375	11679.0302734375	8462.2265625	9232.40234375	7942.37255859375	10170.3095703125	10055.80078125	10296.09375	10563.59765625	14464.7236328125	9225.869140625	11510.6904296875	10092.279296875	11932.6884765625	11090.4931640625	10342.1923828125	10667.5517578125	9740.6015625	9386.7109375	10452.068359375	8405.4599609375	8574.3212890625	13246.2998046875	10003.55078125
90	120	11362.9541015625	12533.630859375	16555.630859375	16442.1640625	12609.595703125	16744.998046875	11959.98828125	10669.9033203125	13474.1611328125	11530.2978515625	7303.54296875	15604.732421875	12769.291015625	7874.77685546875	11248.5419921875	12477.2548828125	16508.703125	16085.021484375	13284.330078125	17218.3125	13041.9140625	12396.9375	10997.47265625	15165.8623046875	12302.99609375	9267.365234375	5084.89501953125	6575.96142578125	16586.80859375	11086.9375	11442.0693359375	7157.267578125	16245.0458984375	16561.046875	17015.361328125	19913.125	14421.9453125	15483.845703125	14679.1875	15906.1201171875	17053.759765625	15246.896484375	14755.2470703125	17245.75	13447.5234375	15228.2763671875	15286.076171875	14735.1259765625	16321.880859375	16189.453125	16710.53125	19597.5234375	14715.375	18766.859375	16236.3330078125	17723.37109375	15674.3779296875	16499.01953125	15813.798828125	14630.337890625	14841.904296875	15138.8583984375	13255.583984375	12693.634765625	21958.671875	15345.8994140625	15918.7451171875	17280.08203125	16325.88671875	19832.12890625	11993.650390625	15448.646484375	15260.638671875	15795.84765625	17508.7734375	15668.3193359375	13412.96484375	17105.17578125	13059.50390625	15149.8916015625	13576.103515625	15867.2236328125	15412.8212890625	16490.384765625	16078.8251953125	21363.28125	14411.84375	18267.078125	15447.828125	18220.35546875	16387.587890625	16126.236328125	15811.2158203125	14800.0703125	14263.9091796875	15853.650390625	13216.484375	13172.6103515625	18990.177734375	14408.2626953125
120	150	13409.84375	14841.353515625	19422.794921875	18726.50390625	16219.072265625	20451.5546875	14129.2001953125	12402.0703125	14627.669921875	12627.427734375	8299.88671875	18241.78515625	13959.2294921875	9029.005859375	13353.1474609375	14687.07421875	19000.71875	18761.34765625	15561.560546875	21381.91796875	15405.5048828125	14471.619140625	12347.3046875	14993.0	14242.7607421875	10758.1005859375	5717.9599609375	7421.68212890625	20559.998046875	13761.5693359375	12868.3271484375	8195.9501953125	19943.896484375	19698.677734375	19230.94140625	23256.791015625	15938.224609375	18562.587890625	17915.1953125	18842.345703125	20042.6328125	18049.267578125	17144.986328125	20134.59375	15532.6875	18574.34375	17829.044921875	19009.77734375	19108.537109375	19908.017578125	20417.705078125	24452.826171875	18108.705078125	22053.1875	19275.66015625	21557.48828125	19246.53125	19437.814453125	19145.61328125	17225.75	17369.72265625	17776.919921875	14660.97265625	14240.4482421875	21867.787109375	16877.47265625	19853.76953125	19682.255859375	20139.931640625	23057.63671875	14074.1298828125	18689.68359375	17877.107421875	18926.228515625	19357.65234375	18628.666015625	15845.5751953125	20599.95703125	14724.271484375	17229.0078125	15158.787109375	18283.9609375	18553.677734375	19567.458984375	18639.494140625	25400.880859375	17175.759765625	21254.0390625	17942.208984375	21426.619140625	18851.26171875	18982.79296875	18954.583984375	17887.1953125	16689.298828125	18891.14453125	15490.4072265625	14390.6357421875	21959.4921875	16487.673828125
150	180	13491.6181640625	14678.375	19107.111328125	18958.30859375	15711.0888671875	21023.05859375	14012.650390625	11641.7412109375	14109.150390625	12639.560546875	8052.68505859375	18193.8203125	14798.6591796875	9564.384765625	13412.1025390625	14205.486328125	18739.845703125	18292.607421875	15510.9521484375	20428.900390625	14394.2705078125	13838.6357421875	12413.96484375	16705.771484375	14347.8876953125	10822.703125	5490.82080078125	7466.01416015625	20146.763671875	13437.7275390625	12589.1357421875	8241.5361328125	20086.251953125	21015.201171875	19603.822265625	22341.220703125	14884.07421875	18015.8671875	17400.86328125	19208.802734375	20125.494140625	17930.912109375	17238.197265625	19489.12890625	15062.4404296875	18389.390625	18282.68359375	18647.90234375	19305.251953125	20589.548828125	20263.712890625	23476.578125	17631.0859375	21496.2890625	18717.673828125	21749.72265625	17821.17578125	19593.798828125	18671.76953125	17366.900390625	17600.0390625	17838.259765625	14228.4990234375	14311.11328125	22005.74609375	17575.14453125	18884.421875	19740.228515625	19465.083984375	22435.580078125	13927.0771484375	18124.658203125	18392.08984375	18532.798828125	19730.626953125	18672.03515625	16328.66015625	19851.9921875	15149.35546875	17643.658203125	15538.48046875	17669.869140625	18047.728515625	19664.623046875	18403.857421875	24509.193359375	16843.77734375	22075.837890625	17736.37890625	21564.46875	17929.021484375	18770.47265625	18887.73046875	18197.796875	16328.353515625	18721.369140625	16828.810546875	14187.126953125	21666.05078125	17080.63671875
180	240	13255.6962890625	13935.9931640625	18444.51953125	18608.240234375	14778.5234375	19160.57421875	14458.6005859375	12115.9091796875	13896.859375	12708.2412109375	7792.80029296875	17555.427734375	14174.4072265625	8996.9306640625	13110.2314453125	14077.7412109375	18137.423828125	18066.09765625	14577.919921875	19624.75	14580.052734375	13016.98828125	13096.966796875	16378.7900390625	14508.037109375	8800.541015625	5252.4609375	7358.25732421875	19666.830078125	13655.3974609375	12062.115234375	8113.61669921875	17919.896484375	19010.3125	18988.900390625	21220.822265625	15548.0224609375	17765.54296875	17563.833984375	18375.900390625	18694.0546875	17206.60546875	16670.216796875	18904.03125	14764.7099609375	18140.404296875	17140.09375	18155.75390625	18523.07421875	19157.732421875	18995.677734375	22789.447265625	16753.98828125	20977.19921875	18484.517578125	20558.197265625	17821.251953125	18905.44921875	18349.609375	16700.828125	16928.921875	17028.75	13795.3291015625	14059.275390625	21936.6484375	16400.283203125	18581.701171875	18900.05859375	18898.82421875	21478.98046875	13980.8974609375	17795.123046875	17435.30859375	18494.5390625	19027.16796875	18210.861328125	15518.2744140625	18961.666015625	14055.0908203125	17086.2265625	14476.8623046875	18136.521484375	17781.365234375	18455.25	18479.357421875	23070.24609375	16342.6455078125	20475.181640625	17657.384765625	20342.63671875	17540.056640625	18144.216796875	17940.63671875	17149.3203125	15875.4619140625	17844.294921875	15070.712890625	13775.533203125	20477.935546875	16068.8330078125
240	300	12783.0546875	13491.005859375	17445.048828125	17520.236328125	14295.7626953125	19829.185546875	14227.2646484375	11653.4990234375	12947.42578125	12329.33203125	7320.4775390625	14633.955078125	14047.0830078125	7974.86767578125	12601.5380859375	13120.8955078125	17232.931640625	16388.23828125	14429.5849609375	19009.052734375	14338.6474609375	12833.564453125	12150.662109375	15964.466796875	14483.98828125	7773.56884765625	5015.90673828125	7301.8388671875	17502.123046875	13196.8173828125	11248.046875	7962.29052734375	17384.267578125	18109.443359375	17815.083984375	20518.12109375	15634.9580078125	17305.197265625	16092.703125	17945.490234375	18248.693359375	16121.5771484375	15645.1845703125	17826.650390625	13658.1337890625	17437.474609375	16552.994140625	17099.126953125	17417.611328125	18093.74609375	18122.25390625	20832.84765625	15913.1953125	19791.841796875	17609.265625	19144.599609375	16496.966796875	17678.197265625	17243.1640625	15931.9677734375	15900.4599609375	16352.02734375	12709.8662109375	13702.86328125	19995.146484375	15775.2001953125	17320.54296875	17674.236328125	17313.5234375	19936.541015625	13178.20703125	17245.6796875	16699.298828125	17986.83984375	17911.2109375	16816.978515625	14695.1787109375	18070.41796875	13875.560546875	16465.443359375	13956.703125	16828.275390625	16131.7138671875	17299.896484375	17726.01171875	20564.892578125	15126.9248046875	18969.041015625	16251.7744140625	19395.2734375	16722.740234375	16782.654296875	16889.349609375	16124.1865234375	15023.9208984375	16738.09765625	14065.0849609375	13649.3349609375	18228.271484375	15387.271484375
300	360	12292.994140625	12848.5654296875	16039.87109375	16355.849609375	12830.9365234375	18655.541015625	14154.46484375	10883.2265625	12344.5009765625	12654.5048828125	7178.7412109375	16473.470703125	13236.283203125	7000.82177734375	12110.3857421875	13164.6669921875	15860.162109375	16014.8681640625	13808.2490234375	17987.40625	13420.271484375	12309.6435546875	11965.7021484375	14498.2939453125	13689.107421875	6695.47021484375	4888.6123046875	7205.88818359375	16039.583984375	12281.4658203125	10547.2412109375	7845.90234375	16508.560546875	17133.529296875	16272.537109375	18735.265625	15310.9482421875	16555.345703125	15170.5146484375	17514.802734375	17131.509765625	15126.5595703125	14891.5263671875	16369.43359375	12703.849609375	16600.0234375	16246.6103515625	15771.203125	15924.8955078125	17255.65625	16436.650390625	18171.798828125	14650.169921875	17531.236328125	15933.583984375	17635.81640625	15212.220703125	16595.7890625	16186.2431640625	14956.8056640625	15135.560546875	15391.443359375	11613.7607421875	12997.044921875	17759.90625	15290.73828125	15606.6689453125	16691.27734375	15906.9189453125	18415.1796875	13281.7802734375	16852.330078125	15402.98046875	16938.412109375	17021.498046875	15819.09765625	14174.1513671875	17123.412109375	12686.900390625	15711.359375	13879.5966796875	15606.7421875	14685.19921875	16243.3984375	16167.37890625	18421.087890625	14182.5947265625	17196.8984375	15364.31640625	17728.322265625	15765.8203125	15671.69140625	15766.8623046875	14909.630859375	14311.361328125	15398.6162109375	13459.4609375	12823.0791015625	15980.0107421875	14770.1083984375
360	480	11482.76171875	12132.048828125	14382.4970703125	15199.2080078125	11553.8388671875	16858.9609375	13485.296875	10295.990234375	11819.025390625	11808.435546875	6715.4833984375	14191.3271484375	13176.0810546875	6610.35693359375	11334.5029296875	11880.216796875	14282.6591796875	15404.8369140625	12094.8359375	16457.78515625	13634.35546875	11222.90625	11143.439453125	14138.6318359375	12701.931640625	6918.44384765625	4603.5517578125	6999.779296875	14491.2373046875	11713.119140625	9466.8681640625	7397.029296875	14703.1025390625	14642.86328125	14172.7939453125	16624.2109375	14251.68359375	15366.236328125	13420.49609375	15997.7548828125	14976.15234375	13473.2255859375	13469.701171875	14870.099609375	11393.5732421875	15099.55078125	15293.15625	14088.8154296875	14359.8017578125	14848.416015625	15194.0361328125	16242.009765625	13041.353515625	16431.5078125	14411.9208984375	15897.220703125	14104.1767578125	14886.3916015625	14078.599609375	13015.5029296875	13909.4892578125	13651.5576171875	10596.9775390625	12506.0791015625	16509.4921875	13853.3037109375	14737.619140625	15161.529296875	14081.7080078125	16330.009765625	12063.9736328125	15353.9111328125	13949.2099609375	15452.86328125	15306.169921875	14370.5380859375	12672.2890625	15029.5966796875	11531.40234375	14145.0244140625	12302.388671875	14249.6103515625	13576.953125	14926.66796875	14487.263671875	17003.443359375	12521.421875	16075.498046875	13626.9033203125	15787.267578125	14381.0224609375	14103.9072265625	14025.9892578125	13330.419921875	12924.7265625	13963.1689453125	12126.1669921875	11808.720703125	14643.2451171875	13204.1376953125
480	600	10496.2421875	10870.7138671875	12521.9365234375	13335.826171875	10291.353515625	14324.1845703125	12175.8076171875	9400.2236328125	10629.6767578125	10683.240234375	6203.46826171875	13282.1171875	11836.19921875	6353.5625	10346.0712890625	10905.978515625	12346.408203125	12618.291015625	10784.0634765625	13877.6240234375	12247.3095703125	10058.5185546875	10277.3828125	12510.080078125	11976.25390625	6080.88330078125	4469.947265625	6852.666015625	12651.298828125	10847.7646484375	8316.140625	7024.90478515625	12970.5517578125	13225.24609375	12198.609375	14204.7041015625	12738.63671875	13380.869140625	11729.1923828125	14111.7294921875	12698.849609375	11952.8232421875	11945.263671875	12640.6181640625	10147.6337890625	13352.6162109375	13136.095703125	12239.5126953125	12846.8994140625	13154.8154296875	13186.3369140625	13235.072265625	11251.779296875	13988.7158203125	12582.765625	13605.30078125	12422.23046875	12941.689453125	12197.9775390625	11263.892578125	12208.9287109375	11662.43359375	8539.4296875	11633.3486328125	13844.853515625	12259.44140625	12510.5146484375	12870.6005859375	12315.6220703125	14015.140625	11120.90234375	13467.49609375	12003.521484375	13736.0546875	13131.669921875	12445.591796875	10829.5205078125	12584.0263671875	9700.6318359375	12526.8388671875	10725.4228515625	12072.107421875	11566.2939453125	12694.3779296875	12473.03125	13676.4169921875	10748.9921875	13871.9189453125	11815.9931640625	13663.232421875	12742.5908203125	12200.2421875	12077.9970703125	11402.5888671875	11322.9375	12370.640625	10602.4833984375	10652.724609375	12853.41796875	11858.173828125
600	900	9618.0654296875	9822.4697265625	10253.5498046875	11398.45703125	8787.22265625	12688.21875	11329.140625	8596.73828125	9303.5908203125	10122.146484375	5709.52685546875	11324.5966796875	11187.955078125	5722.505859375	9481.7978515625	9837.2080078125	10097.791015625	11188.4521484375	8802.1748046875	12212.400390625	10909.7197265625	9065.0849609375	9664.0791015625	10406.4716796875	10780.9140625	5636.126953125	4117.22412109375	6757.7421875	10466.0625	9820.7255859375	7226.10302734375	6690.8896484375	10914.3515625	11341.69140625	10342.8515625	12193.4892578125	11098.5078125	11899.5244140625	10022.419921875	12464.1611328125	11147.26171875	10364.8212890625	10371.1865234375	10781.251953125	8830.2265625	11610.197265625	11535.8408203125	10590.9267578125	10829.533203125	11491.1103515625	11563.4580078125	11150.4443359375	9571.783203125	11667.232421875	10640.9873046875	11618.486328125	10609.3486328125	10903.439453125	10348.89453125	9394.36328125	10678.416015625	9991.515625	7943.47119140625	10194.6767578125	11519.0283203125	10839.8017578125	10603.3408203125	11160.830078125	10059.291015625	11917.0244140625	10080.76953125	12021.0283203125	10044.8818359375	12030.18359375	11135.2255859375	10902.080078125	9541.548828125	10910.8671875	8488.1748046875	10866.2763671875	9998.0556640625	10518.7392578125	9958.5166015625	11059.5478515625	10821.7158203125	11605.4345703125	9017.447265625	11210.916015625	9870.650390625	11551.318359375	10614.5986328125	10235.1953125	10209.1650390625	9595.3134765625	9863.513671875	10346.998046875	8994.564453125	10341.8544921875	10519.08203125	10306.8544921875
900	1200	8779.03125	8538.0302734375	8449.912109375	9533.21484375	7689.19482421875	10639.947265625	10826.783203125	7423.220703125	7937.28955078125	8559.76953125	5307.806640625	9341.6611328125	9604.66796875	5532.48046875	8633.6328125	8532.8818359375	8254.533203125	9629.72265625	7280.14111328125	10184.765625	10121.451171875	7761.1640625	8443.759765625	9177.0673828125	9512.603515625	4787.8076171875	3797.2666015625	6699.34228515625	8392.58203125	8930.5361328125	6355.541015625	6420.21337890625	9729.4482421875	9447.91796875	8924.97265625	10038.3994140625	10152.0908203125	10592.4072265625	8439.4609375	11058.3203125	9330.734375	8918.1728515625	9261.0634765625	9095.4267578125	7367.94677734375	10204.220703125	10528.5087890625	8771.23046875	9388.310546875	10058.5107421875	9895.1279296875	9667.859375	8190.3408203125	10066.8935546875	9165.25	9641.6591796875	8978.3037109375	9357.6259765625	8805.9462890625	7967.19580078125	9274.2646484375	8565.845703125	6743.3544921875	8988.861328125	9514.935546875	9255.9384765625	9378.736328125	9364.83203125	8501.1240234375	10177.9296875	8948.828125	10230.7275390625	8502.0	10554.9482421875	9581.4765625	9509.3603515625	8347.7314453125	9237.5380859375	7210.45166015625	9368.5498046875	8188.19873046875	8939.3486328125	8591.326171875	9538.181640625	9213.68359375	10066.8515625	7663.0166015625	9509.4189453125	8476.30859375	9817.3740234375	8754.8583984375	8875.330078125	8804.125	8185.5966796875	8437.5859375	8793.69140625	7763.224609375	9244.8173828125	9564.0029296875	8959.5556640625
1200	1500	8252.2978515625	8027.96044921875	7315.63916015625	8091.3603515625	6590.2626953125	9155.7109375	9809.6484375	6507.181640625	7247.1298828125	7894.91357421875	4980.1796875	8309.4599609375	8405.9111328125	5778.22509765625	8129.08251953125	7747.4462890625	7101.1220703125	8143.3095703125	6204.06298828125	8897.1171875	9094.65234375	7134.75048828125	7684.61474609375	7496.56005859375	8407.185546875	4964.3671875	3708.738037109375	6668.82763671875	7221.1357421875	8247.5361328125	5850.88623046875	6278.09326171875	8616.478515625	8441.103515625	8099.548828125	9165.361328125	9238.7177734375	9482.615234375	7574.13134765625	10059.4921875	8496.8310546875	8055.15625	8455.7041015625	8367.67578125	6645.873046875	9265.4306640625	9316.6474609375	7927.9716796875	8618.2060546875	9001.4189453125	8999.4677734375	8989.9482421875	7414.013671875	8848.2978515625	8097.6728515625	8648.5693359375	8262.5849609375	8490.30078125	7912.79541015625	7076.48583984375	8243.81640625	7679.60595703125	6070.61279296875	8330.4072265625	8577.65625	8397.60546875	8790.0498046875	8172.25537109375	7756.3779296875	9294.2158203125	7910.76953125	9455.505859375	7607.76171875	9608.5166015625	8599.232421875	8617.6796875	7741.5244140625	8464.1826171875	6681.443359375	8246.26953125	7532.966796875	7841.66650390625	7854.96875	8598.091796875	8445.4599609375	9000.44140625	6820.638671875	8420.552734375	7354.36572265625	8848.0302734375	8217.8935546875	7928.5546875	7781.9697265625	7423.63134765625	7541.1435546875	7824.94287109375	7067.27001953125	8209.6640625	8067.60009765625	8041.9033203125
1500	1800	7872.41796875	7093.31689453125	6516.38671875	7503.8193359375	5812.4677734375	8214.7314453125	8267.0234375	6015.42822265625	6374.7216796875	6740.89794921875	4854.7412109375	6608.234375	7796.9453125	5415.1162109375	7754.39892578125	6993.4248046875	6377.93212890625	7203.619140625	6137.52978515625	7977.6748046875	7922.30224609375	6294.75244140625	6349.287109375	7318.556640625	7547.984375	4581.12841796875	3472.1259765625	6625.5859375	6197.42529296875	7412.640625	5576.99609375	6216.23779296875	7806.3134765625	7459.66357421875	7533.05615234375	8497.4765625	8412.6640625	8760.005859375	7041.52734375	9434.2236328125	7987.86767578125	7564.88818359375	8099.8916015625	7675.22314453125	6177.96875	8491.6318359375	8347.1640625	7497.904296875	7834.0458984375	8699.3193359375	8141.75830078125	7926.41259765625	6883.0009765625	7797.73681640625	7574.85546875	8214.8076171875	7533.5947265625	7849.3798828125	7229.02587890625	6647.17626953125	7759.87158203125	7226.25537109375	5847.236328125	7439.89697265625	7845.46484375	8078.99755859375	8099.71337890625	7462.88720703125	7128.24853515625	8470.8798828125	7769.33154296875	8807.8076171875	7046.6025390625	9008.4208984375	8213.1162109375	8020.48388671875	7088.67529296875	7936.61083984375	6406.19091796875	7569.05322265625	6799.65576171875	7611.18994140625	7393.0244140625	8362.1044921875	7892.01025390625	8551.1337890625	6572.0869140625	7904.0341796875	6931.60400390625	8215.802734375	7450.76318359375	7474.650390625	7311.71923828125	6831.26171875	7018.93310546875	7289.83642578125	6461.0439453125	7517.9599609375	7393.298828125	7467.736328125
1800	2100	7545.5751953125	6577.6884765625	5864.33740234375	6499.27587890625	5426.78515625	7426.68505859375	8337.078125	5370.76611328125	5915.20556640625	6469.68115234375	4619.73486328125	6625.94873046875	6983.06494140625	5088.619140625	7407.72314453125	6389.609375	5695.1328125	6509.61328125	5320.85009765625	7300.423828125	7499.83984375	5667.38818359375	6060.32470703125	6495.265625	7086.22509765625	4732.4521484375	3414.22509765625	6551.2939453125	5615.2265625	7041.599609375	5312.42626953125	6041.41455078125	7400.0244140625	6947.3203125	6995.912109375	7869.31591796875	7819.1025390625	8356.83984375	6706.83984375	9023.1611328125	7317.51904296875	7147.5400390625	7500.1474609375	7466.318359375	5634.3251953125	7919.2529296875	8425.1044921875	6750.79931640625	7568.8974609375	8195.0712890625	7913.84619140625	7619.6533203125	6479.80419921875	7617.3740234375	6985.849609375	7425.568359375	6925.7802734375	7382.91845703125	6788.93701171875	6210.59033203125	7300.53759765625	6801.5732421875	5281.0498046875	7123.02099609375	7476.6171875	7384.8046875	7725.0654296875	7287.8857421875	6638.82275390625	7819.45361328125	6762.77685546875	8245.4150390625	6512.29541015625	8432.0712890625	7643.78564453125	7501.62890625	6915.10888671875	7433.74951171875	6231.724609375	7207.490234375	6331.197265625	6802.6865234375	6898.103515625	7646.3896484375	7279.80029296875	8363.6796875	5943.09521484375	7172.6826171875	6452.2099609375	7724.10888671875	7042.07421875	6852.56005859375	6838.1328125	6414.95068359375	6504.6357421875	6823.89306640625	6118.7578125	6884.416015625	7076.12841796875	6744.8671875
2100	2400	7245.25439453125	6030.390625	5336.91064453125	5972.345703125	4946.580078125	7048.615234375	6930.65087890625	5146.86328125	5611.47802734375	5569.052734375	4308.9072265625	5858.8525390625	6456.1162109375	5479.12646484375	7103.06884765625	5864.30126953125	5207.29541015625	5965.08447265625	4975.93701171875	6545.26123046875	6589.763671875	5578.8984375	5394.322265625	5622.32177734375	6085.62890625	4520.6455078125	3309.378173828125	6474.62939453125	5423.6806640625	6454.1796875	5098.78955078125	5902.14306640625	6778.875	6800.00146484375	6595.4677734375	7350.1884765625	7546.2451171875	7855.6259765625	6464.55419921875	8701.89453125	7064.9345703125	6862.8544921875	7081.26416015625	7092.83642578125	5452.25	7480.53662109375	7268.2265625	6204.5595703125	7098.6240234375	7813.75244140625	7634.3232421875	7342.08642578125	6110.84521484375	6648.22216796875	6558.47265625	7111.595703125	6410.5341796875	6974.3212890625	6407.6123046875	5955.18408203125	6948.89306640625	6298.837890625	4848.90087890625	6741.9677734375	6666.2275390625	6916.33935546875	7202.5546875	6813.95263671875	6158.26416015625	7524.55810546875	6884.30419921875	7982.72802734375	6374.5712890625	7955.673828125	6415.93505859375	7307.62158203125	6560.65087890625	7177.765625	5607.46826171875	6811.69677734375	6154.4658203125	6502.20751953125	6377.03955078125	7321.8857421875	6926.37451171875	7812.033203125	5638.345703125	6905.3837890625	6063.58349609375	7308.87548828125	6688.1171875	6542.048828125	6420.3095703125	6148.09521484375	6205.95263671875	6503.470703125	5746.09814453125	6517.69580078125	6576.83447265625	6491.29833984375
