frame_start	frame_end	parasubiculum	HATA	fimbria	hippocampal_fissure	HP_tail	presubiculum-head	presubiculum-body	subiculum-head	subiculum-body	CA1-head	CA1-body	CA3-head	CA3-body	CA4-head	CA4-body	GC-ML-DG-head	GC-ML-DG-body	molecular_layer_HP-head	molecular_layer_HP-body	Lateral-nucleus	Basal-nucleus	Central-nucleus	Cortical-nucleus	Accessory-Basal-nucleus	Corticoamygdaloid-transitio	Anterior-amygdaloid-area-AAA	Paralaminar-nucleus
0	30	55.95362	32.2742	120.97806	86.85859	50.33501	35.58167	94.70962	72.34234	96.9172	53.19592	99.36442	125.11213	80.28887	97.64768	93.06245	84.36486	67.76138	70.86415	67.89458	55.65914	81.85034	58.11554	57.76314	29.64903	31.15076	58.10557	105.49903
30	60	3287.86013	4602.73828	3676.9937	4012.68644	3638.33009	3604.05678	3848.57268	4080.74716	4077.44455	4487.12992	4204.84451	4955.71403	3740.94923	3857.24076	3929.93659	3928.07485	3741.19262	4205.22469	3902.23566	4128.32462	4273.12833	5310.09492	5970.24731	4810.29269	4638.3335	2774.52773	3961.32297
60	90	9322.68978	13925.7322	13190.33367	12550.33637	15690.93631	10235.76638	12098.84872	12587.99874	12669.2746	12703.22371	12922.26471	16395.79065	13108.16482	15661.93915	13659.98431	13808.31885	13059.62352	12819.07751	12805.50885	12773.13549	12758.96763	18882.14863	18882.85449	14352.1411	12499.79319	11763.2147	11073.14475
90	120	16788.70204	22741.8928	26862.08242	21985.40777	22145.18561	20697.45985	20211.16977	26712.20187	22821.76412	27419.70042	24897.45062	24362.81214	26132.33854	24679.66827	24923.76037	22567.26017	24897.48199	25843.86295	23613.91834	27713.9362	28884.44609	26571.90586	23897.75195	28204.71024	26309.91531	21867.69866	28127.6977
120	150	20605.72873	31910.2526	28615.86594	24931.74197	33567.02624	23400.29557	25033.62544	26854.40685	26641.24287	29574.4938	28550.96753	30328.00948	28501.25094	29434.79102	27167.13551	27311.11686	27493.01034	28756.42807	27098.45553	29817.55401	30983.10481	37260.42695	37052.46289	33064.54408	31437.14308	25972.41602	27915.42795
150	180	20801.00564	32084.20204	34019.06531	26937.08073	34116.97823	23917.49631	27148.20338	29526.10882	31733.00079	32092.61019	34397.69763	32337.14041	34405.37312	31526.63356	33425.49838	29951.45345	33879.12594	30495.60268	32880.49189	33193.61235	32317.93403	33794.60586	33919.26367	32295.20372	30474.30554	31080.8471	30052.46311
180	240	22142.43815	31025.61458	31651.78703	27318.41558	37335.0061	26349.61936	25161.03228	31638.13105	29488.26957	34753.25506	32537.33081	32349.87341	32783.04876	32392.00551	31721.03239	30296.98625	31727.15509	33267.41987	30539.14374	35484.58047	34221.77084	35419.51094	32658.36719	33697.58384	31524.41541	32339.98326	31028.8253
240	300	20503.69358	26138.75564	28781.9475	24697.24414	31421.45141	23858.93533	23739.88852	29663.84129	26304.99493	32817.62987	28981.54633	27973.47222	30864.29434	27431.67768	28902.37035	26112.82593	28814.57567	30756.99894	27452.84221	35215.50329	33552.6869	31616.12227	28569.71094	30913.31452	29792.59305	29795.20201	31120.41341
300	360	20444.16102	27081.75564	29805.68117	24593.76671	30404.60921	24192.37847	23200.94922	29465.99307	25496.62257	31066.2009	29579.48999	27753.94025	29805.82632	26929.45282	28327.08264	26112.88672	27945.79427	29944.59833	26891.6339	31851.96304	31663.98268	29095.98555	27339.12891	31335.613	30907.0605	30822.97098	29336.69444
360	480	17419.61871	22062.42014	25417.35711	21540.91493	25309.48967	20256.22179	20661.11829	25007.68225	22718.74113	25760.1266	25779.4201	24382.46267	26562.31207	23470.45778	25191.79256	22312.23405	24708.38274	25130.09297	23670.73854	29460.74261	28351.70611	22981.67969	22163.69922	25500.68541	25895.7181	27181.73689	26382.11936
480	600	17351.47493	19194.56033	22781.01797	18766.99175	22634.07546	19499.53277	17104.97385	22894.05171	20067.30387	21978.20301	23286.64563	19847.29753	23622.49479	19189.3134	22027.25343	19203.52966	22206.9545	22071.64392	21273.60577	26512.56751	24594.03811	21262.10078	20136.15918	21496.20595	22098.03851	25825.27316	23637.55165
600	900	17600.78754	19420.49609	20223.51367	18432.01562	18203.87464	18454.89497	17427.96652	19931.34277	18167.43024	20597.702	19763.09784	19384.11777	20464.82632	18819.08699	19517.71296	18724.44604	19514.08963	20207.7298	19117.54308	22335.38294	22534.05834	20477.46328	19986.83398	21407.18164	21652.32497	21193.85296	21936.97201
900	1200	15331.13194	13118.97233	16812.9491	15646.82422	14095.77688	15437.82671	14908.89886	15337.17839	15115.64971	15105.17314	15940.94519	15445.32042	16525.71799	14290.17541	16027.85624	14930.67306	15991.78469	15570.03982	15663.86619	17076.07519	17019.39634	16427.45508	15093.44434	15319.19697	15818.37427	18788.0572	16517.76107
1200	1500	13530.75922	15865.40571	15546.19586	14591.56402	12864.74573	13984.2526	13039.9778	14470.39618	13367.93291	15129.35781	14350.8479	15427.32603	14600.17144	14933.66078	14246.04091	15221.19999	14314.26233	14823.00413	13990.25684	15967.8369	16324.07003	16972.90352	16600.39551	17000.12671	16924.5494	16730.20201	14995.46723
1500	1800	12186.71322	15901.51411	15615.17766	13535.4898	12124.87608	12780.60558	12327.76778	13129.78734	12966.4921	14455.38266	14601.24933	15041.0982	14463.40148	14290.87397	14072.3886	14621.36995	14078.40281	13863.84141	13739.81357	15578.43018	15776.26746	15896.88496	16380.68994	16618.09195	16722.35517	15810.20522	14258.75239
1800	2100	12274.565	12818.15918	14070.35457	12590.76758	10642.92709	12386.4426	11178.81127	12293.35858	11886.98962	12906.17409	12671.69678	13217.31029	12677.64771	12233.06438	12552.39972	12744.6602	12596.01631	12797.53421	12284.15672	13391.59596	13350.38498	12880.00996	12705.19727	13088.53587	13615.63306	14127.66811	12735.81651
2100	2400	12579.95866	13660.54937	14222.90234	13007.99523	9656.15112	12782.23286	11260.39796	12182.94417	11938.1941	12418.67222	13162.48526	12981.64048	12938.68779	12341.05278	12503.69336	12847.6604	12520.18906	12442.2469	12400.93803	13161.51391	13058.32949	13185.07988	13147.98975	13279.97327	13511.41669	14613.53655	12751.24403
2400	2700	10497.44217	13223.639	12183.01684	11624.63607	10365.63418	10653.36643	10084.51261	10099.29626	10950.27006	11459.83677	11378.37888	12809.02944	11422.89927	12903.47261	11489.23555	12450.76538	11443.82661	11021.42726	11061.87774	11704.52335	11676.50356	12631.73555	13254.47217	12575.84722	12677.27178	13867.66853	9971.93918
2700	3000	10217.48394	11983.65853	12020.61125	10438.08876	9418.64401	10112.35211	9154.83017	10083.70826	10566.35177	11654.79713	11556.75543	11535.15846	10940.70081	11091.20015	10672.22117	11095.59717	10964.42589	11111.64919	10630.91781	11616.09999	11815.02942	12221.44531	11833.2876	11740.7708	11816.00471	11551.46066	10901.94043
3000	3300	8463.77599	10773.2742	9829.82063	10477.1135	9361.76534	8697.48557	9432.04933	8801.65774	8986.45424	9186.30542	9055.58588	11720.86654	8677.34384	10836.39894	9063.35338	11033.11296	8903.02837	9183.00265	8923.11907	9933.44036	9456.1738	10945.93672	11087.66309	10104.23056	9995.40264	10904.31138	8383.13656
3300	3600	10513.44954	11426.28342	9713.3975	10071.54427	9642.9967	9851.41927	7798.54583	9129.94616	8912.82436	9947.70275	10059.66977	11720.19347	10003.78573	10650.60064	9756.01448	10438.93604	9503.65379	10290.97508	9226.84783	10272.29116	11389.2481	13079.11309	12966.95459	11200.58139	10949.54472	10271.24442	10675.97168
3600	3900	8205.11838	12606.61274	8895.07629	8492.6881	8059.4781	8226.53706	6525.00572	7431.19219	7178.96168	9883.83388	8288.04442	10650.87927	8566.52543	10340.88306	7922.0641	10197.73464	8053.22369	9386.43778	7737.72977	9430.54925	9754.38863	12378.55469	12787.08984	11739.67299	11415.9348	9897.90332	8262.89632
3900	4200	8574.41319	8654.48665	9062.44344	8041.03016	7728.36088	8571.47038	6719.59379	8146.76003	7336.61919	8731.31495	8501.13757	8555.4728	6913.0744	7822.89238	7310.02155	8134.54427	7397.32653	8680.99791	7285.00206	9292.93493	8649.53377	9865.6748	9464.35938	8662.14814	8181.84041	8503.63149	8312.64822
4200	4500	7338.92144	9737.17969	8060.34414	8273.69873	6582.57528	7619.7066	6248.54962	7876.08319	7047.7308	8656.04129	7907.83699	9261.38451	7128.5213	9284.36551	7080.54336	9556.09428	6933.18144	8343.4483	6782.69126	8694.51277	8316.48998	8736.09844	9136.80908	8688.13378	8954.98304	10110.55511	7884.72456
4500	4800	8939.12164	9342.46126	8683.70332	8361.3839	7377.47283	8978.79351	6764.86473	8533.99668	7439.64602	8596.54544	9403.90587	9438.70799	9063.45162	8535.64376	8285.58383	8479.57975	7952.44238	9231.84796	7689.28117	8257.08174	8554.20509	9234.14727	10293.24219	8711.85583	8708.77011	9377.67913	8596.36757
4800	5100	5797.22629	10025.16851	7016.70318	7642.07563	6320.68859	6120.06809	6345.03534	6684.95996	6420.10931	8192.43535	6592.03117	9317.86737	5606.45651	10244.21919	6071.71124	9769.96554	6005.5768	7434.68989	6138.96477	7633.79971	7058.06782	8706.53721	9132.95166	7787.4237	7290.97247	7382.60721	5598.91715
5100	5400	9517.34516	9349.01557	9779.41467	9837.25423	7001.13227	10107.36654	6084.36121	8900.42761	7058.50926	9193.32002	9371.47668	12596.58427	7451.23135	10568.09277	7439.06996	10550.03937	6853.04876	10404.7512	6748.25534	7861.95501	7480.95577	9204.21289	9969.71924	7382.44238	6917.74206	8028.61063	7816.35156
5400	5700	7176.97238	7725.71143	6434.37289	7529.47819	6172.23616	6844.14209	6878.6564	6851.54839	5987.19986	7076.18844	6357.58229	9601.73799	5788.20788	8652.65402	6315.69053	8142.19515	5815.40213	7746.24203	6068.82244	6472.1178	7039.70398	7849.38779	8308.7146	6763.52619	6956.34895	7619.85038	6973.09543
5700	6000	6408.80615	9203.08415	6570.22566	7222.96457	6449.74407	6093.54226	5997.33213	6243.9615	7258.14706	7374.70634	7193.33698	8233.50785	6767.86399	9241.03635	6928.79189	8778.69965	7022.07107	7046.30426	6562.17026	6247.28058	6833.2542	6794.60869	6909.35742	7293.07717	7652.29043	8158.36935	6232.20839
6000	6300	8450.68137	7373.75678	8104.04189	6929.15641	5164.79051	8135.49457	4388.57872	7490.81539	6451.50105	6753.81735	7831.01228	8011.12124	6215.23426	7992.54053	6072.76358	7121.63495	6154.91593	7777.49046	5921.06858	5241.01258	5447.44891	6288.01211	7543.28149	5600.94591	5853.29785	6877.45222	6106.45605
6300	6600	5656.83903	6457.47504	5400.90867	5545.87701	6464.91016	5010.51725	4824.73279	4816.06167	4162.48391	5330.33233	5317.30544	6796.50024	5001.47415	6418.00174	4732.59864	5462.68671	4523.02898	5584.10675	4587.41818	6444.49584	6495.82446	7904.91504	7783.61841	5680.45682	5517.15562	7504.76011	6313.50895
6600	6900	4374.87668	10897.59874	7323.6093	6400.17757	5518.49037	5009.89722	6169.83983	5403.93706	6712.55269	8066.01729	6602.14037	7561.47094	6244.53441	7687.80703	6458.7751	7170.30133	6649.74412	6393.96444	6778.93719	7164.43795	7221.49618	6396.10566	8968.91846	8005.10201	8062.3192	8422.65102	6082.10862
6900	7200	4829.88064	5222.03057	5570.69652	6887.82123	5458.25529	5755.0115	5441.5092	5291.79485	5894.0086	5989.42162	5505.69507	5657.66929	6858.36714	6238.35291	6918.53361	6583.21619	6488.04454	5405.59386	5846.01794	4794.23108	4516.08856	3103.61631	3234.63489	4373.07855	4750.40138	3257.83855	4955.59055
