frame_start	frame_end	Left-Cerebral-White-Matter	Left-Cerebellum-White-Matter	Left-Cerebellum-Cortex	Left-Thalamus	Left-Caudate	Left-Putamen	Left-Pallidum	Brain-Stem	Left-Hippocampus	Left-Amygdala	CSF	Left-Accumbens-area	Left-VentralDC	Left-choroid-plexus	Right-Cerebral-White-Matter	Right-Cerebellum-White-Matter	Right-Cerebellum-Cortex	Right-Thalamus	Right-Caudate	Right-Putamen	Right-Pallidum	Right-Hippocampus	Right-Amygdala	Right-Accumbens-area	Right-VentralDC	Right-choroid-plexus	AirCavity	Skull	Vermis	Pons	CSF-ExtraCerebral	Head-ExtraCerebral	ctx-lh-bankssts	ctx-lh-caudalanteriorcingulate	ctx-lh-caudalmiddlefrontal	ctx-lh-cuneus	ctx-lh-entorhinal	ctx-lh-fusiform	ctx-lh-inferiorparietal	ctx-lh-inferiortemporal	ctx-lh-isthmuscingulate	ctx-lh-lateraloccipital	ctx-lh-lateralorbitofrontal	ctx-lh-lingual	ctx-lh-medialorbitofrontal	ctx-lh-middletemporal	ctx-lh-parahippocampal	ctx-lh-paracentral	ctx-lh-parsopercularis	ctx-lh-parsorbitalis	ctx-lh-parstriangularis	ctx-lh-pericalcarine	ctx-lh-postcentral	ctx-lh-posteriorcingulate	ctx-lh-precentral	ctx-lh-precuneus	ctx-lh-rostralanteriorcingulate	ctx-lh-rostralmiddlefrontal	ctx-lh-superiorfrontal	ctx-lh-superiorparietal	ctx-lh-superiortemporal	ctx-lh-supramarginal	ctx-lh-frontalpole	ctx-lh-temporalpole	ctx-lh-transversetemporal	ctx-lh-insula	ctx-rh-bankssts	ctx-rh-caudalanteriorcingulate	ctx-rh-caudalmiddlefrontal	ctx-rh-cuneus	ctx-rh-entorhinal	ctx-rh-fusiform	ctx-rh-inferiorparietal	ctx-rh-inferiortemporal	ctx-rh-isthmuscingulate	ctx-rh-lateraloccipital	ctx-rh-lateralorbitofrontal	ctx-rh-lingual	ctx-rh-medialorbitofrontal	ctx-rh-middletemporal	ctx-rh-parahippocampal	ctx-rh-paracentral	ctx-rh-parsopercularis	ctx-rh-parsorbitalis	ctx-rh-parstriangularis	ctx-rh-pericalcarine	ctx-rh-postcentral	ctx-rh-posteriorcingulate	ctx-rh-precentral	ctx-rh-precuneus	ctx-rh-rostralanteriorcingulate	ctx-rh-rostralmiddlefrontal	ctx-rh-superiorfrontal	ctx-rh-superiorparietal	ctx-rh-superiortemporal	ctx-rh-supramarginal	ctx-rh-frontalpole	ctx-rh-temporalpole	ctx-rh-transversetemporal	ctx-rh-insula
0	30	129.81092834472656	216.84498596191406	390.35333251953125	243.52334594726562	507.79144287109375	513.5853881835938	304.645751953125	460.0940856933594	493.11749267578125	141.3505096435547	51.99447250366211	103.59397888183594	507.3399658203125	1559.8729248046875	136.39370727539062	218.55029296875	287.65277099609375	463.4603576660156	552.8848876953125	663.3631591796875	221.23947143554688	220.67356872558594	492.10357666015625	724.1024780273438	628.7737426757812	1236.516357421875	48.26118850708008	95.52935791015625	397.72833251953125	131.49461364746094	395.31640625	170.16949462890625	662.9488525390625	472.7583923339844	851.4429931640625	479.480224609375	479.2051696777344	379.798828125	536.4881591796875	486.8304748535156	440.20965576171875	300.72430419921875	629.7348022460938	463.7537841796875	1048.603759765625	346.005615234375	55.59736633300781	354.4967346191406	929.8301391601562	731.9120483398438	607.939697265625	958.8624877929688	656.8626708984375	397.7984313964844	515.1964721679688	585.473876953125	385.1199951171875	611.0299072265625	589.7847900390625	339.44281005859375	617.0931396484375	599.3402709960938	454.9740295410156	339.9759826660156	2237.9794921875	1040.9627685546875	675.2567138671875	565.3817749023438	499.18011474609375	656.9212036132812	300.2027587890625	363.7747497558594	453.6240234375	397.8519592285156	241.61111450195312	366.01513671875	771.2749633789062	607.0784912109375	399.4701843261719	338.3531188964844	1276.3590087890625	337.8670654296875	712.3650512695312	502.7684631347656	747.3435668945312	1202.2034912109375	541.5682373046875	561.8382568359375	480.0681457519531	613.4553833007812	830.0700073242188	458.7731628417969	542.5623779296875	462.4271545410156	494.451904296875	639.5227661132812	770.398193359375	520.5383911132812	1066.29443359375	860.6287231445312
30	60	1117.8111572265625	2761.869384765625	5376.29931640625	5742.79833984375	6846.38232421875	6793.63671875	2678.53271484375	3795.152099609375	5315.52392578125	2846.736083984375	1549.7476806640625	4695.73291015625	3524.517333984375	9962.216796875	1235.7320556640625	2750.698974609375	5470.25341796875	5738.17578125	5175.4267578125	7025.47412109375	2756.1328125	5454.9765625	2887.562744140625	6077.58984375	5348.2177734375	8412.36328125	693.83642578125	1086.0501708984375	4559.18310546875	3707.662353515625	2567.853515625	1743.1334228515625	8274.0869140625	3740.477294921875	10224.1181640625	7940.49072265625	6789.01171875	4996.55615234375	6708.42041015625	6464.0654296875	6724.02099609375	7114.91015625	7773.3193359375	7943.705078125	7411.353515625	6106.44189453125	3584.552734375	8243.80078125	8117.88330078125	9269.712890625	9052.2138671875	15171.75	7226.97607421875	6728.10986328125	7423.3095703125	7814.556640625	6312.1767578125	8837.654296875	7291.23779296875	7087.58349609375	7049.20458984375	7551.06591796875	10718.7314453125	3321.344482421875	13061.333984375	7512.26708984375	8471.767578125	7901.88720703125	8794.796875	9478.9208984375	4414.912109375	4655.55419921875	7464.5400390625	6426.42626953125	8834.9482421875	7366.70458984375	7362.23046875	8568.83203125	6831.99267578125	6144.02978515625	3220.7578125	8058.84033203125	8626.3564453125	8530.9482421875	8798.78515625	16617.580078125	7932.3466796875	7177.296875	6612.544921875	6884.02587890625	7554.29931640625	8060.10400390625	7514.87353515625	6875.61572265625	6813.638671875	7760.8359375	7414.298828125	5663.58935546875	16294.87890625	6921.18115234375
60	90	2672.25927734375	6549.73681640625	11340.0341796875	12111.2685546875	14740.078125	15488.314453125	8031.90380859375	7212.52490234375	10380.5771484375	7789.06787109375	2519.653564453125	13081.2978515625	8981.7109375	25129.46875	2528.693359375	6012.65673828125	11328.078125	12864.353515625	14424.3212890625	15770.6708984375	5800.62548828125	10537.7177734375	9791.83984375	8851.0380859375	8747.9228515625	35797.8125	1329.07958984375	2401.19775390625	11891.8994140625	8135.68896484375	3856.072509765625	3508.54541015625	16166.5673828125	13529.216796875	20151.22265625	18518.71875	11689.30078125	12146.216796875	14863.853515625	13373.9794921875	15487.4521484375	16697.587890625	18095.576171875	16857.94921875	14313.615234375	13968.0400390625	11271.771484375	15244.8857421875	18211.474609375	18564.6953125	20673.564453125	33371.67578125	17051.134765625	16201.7158203125	16831.525390625	16680.32421875	11987.203125	20152.439453125	16597.568359375	17295.16796875	14325.3310546875	16142.54296875	20078.9921875	10593.1357421875	28000.56640625	13521.1103515625	17531.748046875	15917.3330078125	18002.47265625	20676.220703125	6011.796875	12929.4521484375	16529.671875	14299.2880859375	17784.7578125	17641.86328125	16779.1328125	19587.48046875	16323.11328125	14381.9482421875	8442.5224609375	15613.9365234375	18717.57421875	20079.92578125	18969.94921875	36345.82421875	17785.984375	16407.576171875	15527.080078125	17886.8671875	15373.96484375	18628.17578125	16945.125	17952.119140625	14623.8486328125	16940.513671875	23372.0234375	9441.8662109375	27741.599609375	12918.6826171875
90	120	4380.59033203125	9604.8984375	17839.369140625	20456.884765625	26414.994140625	24294.2890625	13612.28125	11889.8154296875	16466.029296875	12749.4716796875	3464.347412109375	18439.91796875	13349.0	31253.89453125	4306.8505859375	9248.1865234375	17949.3359375	19204.953125	22221.634765625	25501.080078125	7789.1064453125	17977.328125	9837.5419921875	14933.552734375	15472.947265625	31677.44921875	2204.685302734375	4018.820556640625	19756.23046875	12684.4931640625	4777.30712890625	5989.333984375	27898.244140625	21208.779296875	30624.359375	30932.287109375	18896.638671875	19033.568359375	24431.451171875	21694.861328125	28130.03515625	25226.12109375	27739.49609375	27711.599609375	25395.314453125	21700.875	16441.6171875	25438.662109375	29298.40234375	29196.6171875	33108.40625	55388.265625	27801.08203125	24789.611328125	28732.5859375	25917.1328125	19389.552734375	31605.5390625	26720.970703125	26974.67578125	22334.404296875	25623.916015625	34038.8125	16565.767578125	50999.61328125	23274.4375	28609.619140625	24002.056640625	30940.63671875	33649.98828125	10658.2802734375	19823.55859375	26815.78515625	22138.1484375	27261.4296875	28653.44921875	27179.205078125	30951.95703125	23399.32421875	23102.63671875	12746.5068359375	27328.302734375	33150.53515625	28024.58203125	28197.568359375	51183.40234375	30724.921875	27549.5234375	26517.892578125	27454.087890625	25764.486328125	30141.87890625	27891.95703125	27474.537109375	22939.658203125	28138.794921875	27266.146484375	15566.4892578125	49271.2421875	19116.654296875
120	150	5775.23095703125	13396.1328125	25022.419921875	28237.6796875	36627.8125	36829.63671875	14262.3115234375	15186.0205078125	22956.341796875	17777.78125	4471.0078125	19875.921875	18469.69140625	34071.03515625	5449.5732421875	14242.63671875	24758.34765625	27716.498046875	33859.8046875	36018.5	10895.4638671875	21359.787109375	17316.515625	19470.54296875	21184.529296875	51316.53515625	2725.458251953125	5481.58837890625	24412.302734375	18745.185546875	4947.6435546875	8413.3349609375	37845.78125	28220.693359375	41366.9375	42094.2265625	23177.79296875	26227.3515625	34064.05078125	30681.25390625	35446.55859375	36734.484375	37113.2109375	39252.53515625	33623.06640625	29441.18359375	23855.115234375	33406.03125	44420.625	40445.828125	44151.609375	71595.4140625	38375.1015625	34142.1015625	39436.9765625	36382.765625	28995.3984375	45541.93359375	37756.609375	38083.20703125	30895.7109375	35974.9921875	47165.08984375	24807.427734375	59499.3828125	26718.048828125	38799.7890625	32344.02734375	42658.1328125	46265.09765625	12750.5810546875	26564.041015625	38423.48046875	30403.720703125	35561.12890625	39912.484375	36131.58203125	41327.72265625	35628.15625	31558.337890625	20695.375	37561.08984375	43822.91796875	38491.0390625	41423.8828125	70295.53125	41424.48828125	36225.99609375	38271.703125	39685.20703125	34531.421875	42922.84765625	38773.453125	39048.91015625	31694.8203125	39080.26953125	46690.3203125	21282.49609375	61045.36328125	26701.228515625
150	180	6466.51123046875	15417.869140625	25990.4765625	29532.349609375	37556.27734375	38121.1015625	16353.69921875	16081.7177734375	22385.556640625	17385.7265625	3445.26708984375	27297.078125	19804.208984375	34063.84375	5948.99365234375	15084.6513671875	26090.494140625	29307.001953125	35455.515625	37620.29296875	13387.1611328125	23662.5546875	16414.84375	10774.466796875	21574.626953125	61677.9765625	2216.618896484375	5638.458984375	22713.337890625	20803.814453125	3354.359619140625	8547.580078125	38510.57421875	25100.865234375	45054.62890625	49943.51171875	25929.875	29411.64453125	36287.7421875	34194.765625	36697.296875	38563.828125	41026.421875	40741.00390625	33398.0546875	31980.69140625	23811.865234375	35223.70703125	45755.2734375	44550.328125	47818.8671875	76261.1796875	41005.890625	35152.6796875	40736.7421875	39377.2109375	32108.125	47868.109375	41177.88671875	40967.8671875	33652.3828125	37685.93359375	51735.70703125	22318.134765625	64495.2578125	30247.943359375	43573.51171875	35498.16796875	45542.46484375	48098.9375	13495.146484375	28983.162109375	42429.0703125	34612.5859375	41613.03515625	42952.7265625	38858.25	44791.73828125	38434.5	33409.59375	22986.2578125	39759.78515625	43872.3984375	41401.546875	43696.7890625	73125.4765625	44898.63671875	37358.640625	40481.05078125	42949.6171875	34687.55078125	46935.01953125	41584.171875	42664.8828125	34160.0	43275.4921875	49195.83203125	21967.994140625	64047.359375	28654.51953125
180	240	6440.947265625	14247.38671875	25404.73828125	29125.646484375	37924.890625	36593.17578125	16764.677734375	16077.2353515625	23127.150390625	18860.791015625	2610.755615234375	22563.873046875	18326.083984375	34073.63671875	6002.9912109375	15342.548828125	25253.423828125	28636.87109375	34466.453125	36133.24609375	15408.181640625	21097.73828125	17154.5546875	20677.921875	20781.646484375	46368.75390625	1728.6923828125	5738.6005859375	23027.193359375	18924.41015625	2177.1806640625	8608.34375	38317.546875	27597.181640625	43948.875	44559.5234375	24264.458984375	29378.333984375	35198.6484375	31761.982421875	38537.046875	37896.34375	38367.50390625	38028.546875	32438.486328125	31695.361328125	20898.666015625	35145.734375	40941.3046875	40571.79296875	47739.296875	71480.6328125	40417.296875	33500.7890625	39768.96875	37220.9140625	33971.69921875	47053.33984375	39806.71484375	41396.23828125	32147.064453125	36760.0234375	49149.96484375	25345.759765625	62746.80859375	28280.521484375	41533.88671875	33901.11328125	44606.66015625	48089.9140625	11590.537109375	28779.61328125	40748.16796875	32715.693359375	40946.24609375	41914.765625	36508.3671875	42037.953125	35068.97265625	32897.20703125	23551.322265625	38782.1484375	43485.59375	38648.30078125	42360.30078125	69443.5859375	45308.5625	37499.96484375	38378.83203125	41646.796875	33497.9296875	45712.703125	40202.5234375	42003.47265625	33030.54296875	41248.0390625	50708.26171875	20723.130859375	51709.03515625	27253.271484375
240	300	6699.11376953125	13383.673828125	23631.4375	27690.064453125	36421.0078125	34396.17578125	15725.1796875	14641.326171875	20736.505859375	18015.91015625	1852.232177734375	16080.228515625	16569.267578125	24512.541015625	6358.00341796875	14212.69921875	23824.349609375	28012.658203125	33474.078125	32872.59765625	13052.0498046875	19506.876953125	20127.171875	16080.87109375	20506.576171875	36410.9296875	1437.351318359375	5781.57666015625	21609.037109375	18258.41796875	1738.19189453125	8450.15234375	34894.09765625	25671.17578125	40536.67578125	42069.1484375	23475.69140625	26609.517578125	32702.306640625	30881.603515625	32902.33203125	34640.69140625	35046.15234375	35532.12109375	30613.150390625	30223.634765625	22966.087890625	33409.78515625	38421.63671875	34962.40234375	42703.3515625	60436.38671875	36247.421875	31379.1875	35308.0703125	34843.6484375	30431.771484375	42966.4296875	36851.546875	37147.1015625	29801.4140625	32442.16015625	46979.1875	24869.712890625	50903.05078125	26387.4765625	35716.40625	32283.755859375	40535.7265625	41827.62890625	11024.666015625	26213.009765625	37216.21875	30789.072265625	36270.1328125	38476.48828125	33771.71484375	37644.625	34495.3359375	31649.60546875	23568.501953125	34254.796875	38843.26953125	35095.88671875	39470.31640625	64595.8828125	38842.1484375	33419.66796875	35613.02734375	38214.0703125	29531.84375	41713.60546875	36480.015625	38405.2109375	31110.84375	38195.7734375	44900.54296875	19787.642578125	50831.44140625	25862.62109375
300	360	6778.087890625	13375.78125	21502.65625	26067.173828125	31998.404296875	30631.251953125	15985.052734375	13684.74609375	19108.44921875	17301.115234375	1220.0919189453125	23417.330078125	18172.7109375	13689.8916015625	6328.54296875	13546.138671875	21451.8359375	26144.013671875	30696.771484375	31134.85546875	12793.4501953125	16881.22265625	19713.826171875	18073.142578125	18960.0078125	27520.91015625	1149.456298828125	5947.6474609375	19515.736328125	17099.8828125	1155.348876953125	8235.205078125	29258.833984375	22420.958984375	36164.9296875	37758.67578125	22252.46875	25265.953125	29603.173828125	27948.728515625	28581.6328125	30956.75390625	31419.388671875	30821.798828125	27191.10546875	27518.357421875	20382.43359375	28734.087890625	33551.6640625	31418.052734375	38397.57421875	55062.4140625	32985.12109375	26963.611328125	31398.306640625	31616.025390625	27368.1640625	39074.3359375	33031.296875	33763.625	27021.74609375	28934.658203125	41497.4921875	25755.6640625	45789.53515625	25222.296875	33311.7265625	28548.484375	34814.859375	36874.68359375	10850.9111328125	24527.93359375	34165.7265625	28562.126953125	33120.84765625	34530.140625	30451.107421875	34001.97265625	32129.951171875	27986.005859375	20610.58203125	32333.615234375	35335.8984375	33703.68359375	34232.16015625	53672.10546875	35911.83984375	29769.62890625	32455.07421875	34044.63671875	30390.47265625	37588.3515625	34234.30078125	34760.234375	28127.5078125	33973.1484375	42011.08203125	18610.96875	36092.28515625	24445.275390625
360	480	6828.92041015625	11861.076171875	18368.513671875	23115.369140625	28057.287109375	25667.888671875	14599.0859375	13016.9970703125	16489.91015625	17909.029296875	829.8375244140625	17681.13671875	15797.625	14026.46484375	6498.58837890625	12518.7880859375	18301.275390625	22247.541015625	24899.119140625	25997.76953125	13308.595703125	15367.9462890625	18412.251953125	16164.341796875	17601.25	19428.390625	746.4304809570312	5920.97314453125	17456.22265625	15848.763671875	830.0369262695312	7944.06298828125	25077.552734375	22651.92578125	29152.958984375	29580.31640625	20721.560546875	21914.97265625	24817.828125	23914.94140625	25455.607421875	25766.099609375	26719.560546875	26220.75	23933.25	23084.009765625	17774.03125	25965.478515625	26438.9296875	28322.623046875	30619.87890625	44038.2578125	27169.333984375	23596.4921875	26850.4296875	26615.994140625	24313.025390625	32435.896484375	27704.07421875	28947.82421875	23860.748046875	25086.23828125	35819.5546875	21629.603515625	36825.7890625	22272.443359375	28565.396484375	24104.994140625	29436.333984375	31532.2890625	9420.6689453125	21432.833984375	29080.73828125	24564.552734375	28056.943359375	29074.99609375	25196.869140625	28470.9765625	26150.4921875	24488.3984375	20841.671875	27622.056640625	27780.349609375	26896.234375	28582.896484375	43659.265625	29732.546875	25468.40625	27730.701171875	28272.966796875	26619.916015625	30887.509765625	27649.716796875	29971.208984375	24357.28125	28292.80078125	34603.32421875	17269.591796875	32995.0234375	20863.1953125
480	600	6849.85595703125	11230.68359375	15185.6953125	19774.7109375	21665.375	21417.77734375	13466.794921875	10848.390625	13319.2568359375	15506.8310546875	168.4985809326172	16118.580078125	15121.1279296875	13342.71875	6542.3935546875	10982.0771484375	15146.650390625	19036.71875	19776.875	20692.783203125	12446.2236328125	13611.4814453125	15181.951171875	15934.0849609375	14720.5966796875	19520.76953125	532.1172485351562	5813.595703125	14535.482421875	14393.2744140625	603.1873779296875	7629.48193359375	20190.134765625	19659.703125	22682.375	23544.705078125	17822.529296875	18805.34375	19927.02734375	20281.7578125	20463.4921875	20142.14453125	20813.4609375	20568.197265625	20399.78515625	19274.1328125	15183.3564453125	20659.40234375	21471.35546875	21858.7734375	24737.34765625	29911.427734375	21670.6015625	19313.669921875	21737.34765625	20662.306640625	20377.73046875	25575.322265625	21770.98828125	23785.478515625	19302.95703125	19970.107421875	26285.611328125	18779.8203125	29337.130859375	18911.595703125	20197.970703125	20318.171875	24089.6015625	24830.91015625	9231.7998046875	17804.3515625	23717.05859375	20722.3671875	22927.58203125	22726.224609375	20461.037109375	20968.80078125	21551.767578125	19832.0	16454.703125	21551.744140625	21975.73046875	21500.1171875	22427.88671875	31567.62109375	23718.54296875	21048.767578125	21386.599609375	22483.1171875	20143.0703125	24778.802734375	22171.921875	24156.421875	19608.87890625	21933.720703125	28075.5234375	16355.7509765625	21272.9140625	18533.79296875
600	900	6820.10107421875	9641.5888671875	11108.125	15136.814453125	14933.71484375	15073.607421875	13405.296875	9459.4296875	10443.044921875	13385.7138671875	-2.6886849403381348	12567.857421875	12405.490234375	10069.9306640625	6602.64697265625	10521.345703125	10924.1611328125	15135.505859375	12912.7978515625	15201.90625	11376.1728515625	10190.9873046875	13447.3134765625	11600.2958984375	13179.3857421875	10910.1318359375	168.9324493408203	5881.31787109375	11504.328125	11731.091796875	345.3068542480469	7064.34423828125	14606.185546875	13948.1611328125	15661.3544921875	17677.701171875	15137.8095703125	14242.376953125	14389.6240234375	15698.1220703125	15166.126953125	14585.826171875	15364.41796875	15463.69921875	15390.9306640625	14313.251953125	12522.158203125	14674.00390625	15394.421875	15788.3935546875	17482.544921875	21177.931640625	15260.6826171875	14392.54296875	15728.3515625	15180.265625	15547.3935546875	18490.201171875	15805.69140625	16968.41015625	14793.37109375	14776.2041015625	22297.33203125	15926.0771484375	20010.158203125	15401.2001953125	16891.935546875	15365.6240234375	16341.8046875	18193.744140625	7427.955078125	14121.7275390625	17004.232421875	15655.994140625	16280.533203125	17238.08984375	14709.4697265625	15819.3505859375	15705.390625	14953.8623046875	13490.248046875	15672.0185546875	16254.927734375	16266.1025390625	15713.3330078125	20624.369140625	16165.599609375	15416.1650390625	15974.658203125	16775.041015625	15068.8720703125	17850.509765625	15899.287109375	17505.76953125	15077.8876953125	16138.4033203125	21347.693359375	13022.3720703125	15652.3134765625	14676.318359375
900	1200	6839.560546875	8598.185546875	7876.9951171875	11206.08203125	9915.2138671875	10520.7060546875	11390.6796875	7506.3642578125	7619.88623046875	10606.66796875	-371.3877868652344	9677.56640625	10526.6923828125	10085.7978515625	6614.603515625	8943.3125	7652.48974609375	10756.1318359375	8704.7880859375	9992.65625	10800.955078125	7080.04541015625	10667.7998046875	8580.611328125	11077.265625	8767.62109375	-147.68026733398438	5936.83544921875	7885.21484375	9430.958984375	510.62322998046875	6639.82421875	10591.7041015625	11613.578125	11389.4521484375	13475.810546875	11660.291015625	11297.4033203125	10479.990234375	12355.9169921875	10742.6142578125	10499.62109375	11134.30078125	11378.486328125	11898.73828125	10529.2998046875	9462.044921875	9906.576171875	10860.4609375	12076.5634765625	12614.7451171875	13468.6357421875	10562.4580078125	10772.0673828125	11418.66015625	11169.3623046875	11325.525390625	13482.451171875	11350.1416015625	12283.00390625	11115.7158203125	10200.6484375	15940.55078125	12378.2392578125	14481.28125	11734.8154296875	11853.3671875	11195.8515625	11670.521484375	13901.8974609375	7208.4189453125	10635.4296875	12386.333984375	11911.79296875	12516.970703125	13030.720703125	10343.890625	12298.8125	11989.7001953125	11140.8115234375	10380.537109375	11318.28125	11954.1416015625	11594.556640625	11624.3681640625	14607.513671875	12032.98828125	11503.3017578125	10897.3515625	11973.6982421875	11785.4990234375	13086.724609375	11216.9443359375	12470.12109375	11145.9365234375	11625.849609375	16565.7109375	10174.779296875	13083.1572265625	11471.201171875
1200	1500	6644.51416015625	7850.68359375	6273.6953125	8811.224609375	8091.75390625	8034.81884765625	9802.1953125	6315.71044921875	6333.115234375	8428.8720703125	-152.5894317626953	5408.08251953125	8967.376953125	8627.0546875	6533.46337890625	8219.16796875	6065.41845703125	8688.8095703125	6268.2705078125	7696.24267578125	9920.9228515625	5874.62451171875	7408.853515625	6641.734375	9270.16796875	6786.2890625	-242.0841522216797	5812.30029296875	6236.3046875	8537.490234375	866.7109375	6480.98095703125	8614.6904296875	9485.5380859375	9389.1201171875	10128.892578125	9613.63671875	9709.71875	8823.3095703125	10024.154296875	9480.736328125	8826.369140625	8821.9599609375	9827.3251953125	9878.2138671875	8607.375	8338.638671875	8160.9453125	9994.8369140625	10334.26953125	10067.6279296875	11857.7607421875	9114.2138671875	8376.376953125	8958.19921875	9745.634765625	9687.9423828125	11248.4326171875	9059.1435546875	10151.5205078125	8947.265625	8332.380859375	12364.720703125	10474.5205078125	12201.978515625	10008.30078125	9968.7568359375	10199.8564453125	9394.923828125	11251.9013671875	5054.45556640625	9120.3818359375	10252.009765625	9692.6962890625	9794.22265625	11149.541015625	8742.462890625	10363.5439453125	9073.087890625	8778.68359375	8473.880859375	8693.5244140625	9470.5771484375	9420.4521484375	9492.55859375	12143.49609375	9244.3837890625	9204.587890625	8935.05078125	9857.771484375	10498.96875	10717.826171875	8957.5595703125	10274.01953125	9030.015625	9044.22265625	13312.642578125	8827.7353515625	11952.474609375	9629.744140625
1500	1800	6666.36279296875	7017.4736328125	5363.3544921875	7200.1494140625	6375.603515625	6987.69873046875	8889.154296875	5984.85400390625	5053.05224609375	8212.087890625	-182.35549926757812	4133.1318359375	7947.4912109375	8830.76171875	6490.32470703125	7713.32080078125	5148.36572265625	7337.3095703125	5711.470703125	7086.5556640625	7705.845703125	4748.7431640625	6679.0302734375	2524.51171875	8615.9384765625	7315.421875	-342.177001953125	5775.97998046875	5625.62939453125	7705.47265625	979.5798950195312	6381.0859375	6904.388671875	7905.59619140625	8704.7216796875	9317.458984375	8340.0048828125	9011.8115234375	7821.1943359375	9064.7548828125	8550.59765625	8283.0380859375	8030.3603515625	9188.41015625	9577.923828125	7708.22509765625	6903.02734375	7861.04638671875	8265.7021484375	9514.5419921875	10010.259765625	8099.794921875	7994.38916015625	7525.30908203125	7784.0927734375	8452.587890625	7439.06494140625	10145.0576171875	8059.9560546875	9448.671875	8033.84814453125	7297.82421875	11661.8662109375	9189.78125	11647.556640625	8673.0888671875	9232.9873046875	8097.77978515625	8451.7646484375	10347.7353515625	3805.514404296875	8695.5537109375	9589.35546875	8574.857421875	8735.572265625	10092.9765625	7421.8603515625	9446.5673828125	8157.52294921875	7417.48779296875	7515.72998046875	7374.16064453125	8738.75	9113.5478515625	8196.9619140625	12010.3251953125	8558.3173828125	8433.0888671875	7704.07568359375	8800.998046875	9113.6865234375	9689.3544921875	7940.6923828125	9481.931640625	8227.8515625	8207.005859375	12451.2177734375	7433.48095703125	11496.2099609375	8228.369140625
1800	2100	6531.83447265625	7272.974609375	4807.6015625	6429.2412109375	6404.04931640625	6027.53515625	8097.91015625	4862.0341796875	4824.68798828125	6423.23388671875	-139.8296661376953	2688.50390625	7277.9296875	8447.9580078125	6420.8662109375	7439.10009765625	4632.1357421875	6329.28271484375	4977.146484375	5754.0205078125	7998.2099609375	3996.508544921875	5988.765625	3367.215087890625	7553.39111328125	5758.099609375	-326.878173828125	5808.0224609375	5358.88818359375	7191.39208984375	1282.7236328125	6233.73291015625	6986.58154296875	7630.919921875	8645.927734375	9179.984375	7111.56201171875	8832.4248046875	7411.1982421875	8517.0673828125	8323.7978515625	7807.6875	8140.9638671875	8658.8701171875	7903.35205078125	7428.9111328125	6821.9541015625	6084.08935546875	7602.29052734375	8653.765625	9308.7958984375	8792.9912109375	7184.17529296875	7651.75	7358.802734375	8176.40625	7648.240234375	9586.4453125	7643.81787109375	8414.7216796875	7496.02783203125	7167.56591796875	9750.37109375	8432.7587890625	11341.189453125	8090.12548828125	9327.8603515625	7443.03173828125	7942.54833984375	9409.4130859375	4174.73779296875	8044.46337890625	8535.908203125	8346.76953125	8814.83203125	9616.05078125	7144.80419921875	9184.533203125	7966.482421875	7192.11572265625	6768.4208984375	7214.56640625	8329.2490234375	9029.7939453125	7354.9287109375	9757.4677734375	7954.982421875	7357.53955078125	7285.09765625	8076.87060546875	8021.2392578125	8931.33203125	7225.853515625	8789.556640625	7186.341796875	7642.123046875	11962.1708984375	6301.625	8462.01953125	8484.5068359375
2100	2400	6427.71044921875	6603.89306640625	4485.00830078125	5754.63818359375	5164.82177734375	5978.4482421875	7149.93603515625	4477.7529296875	4680.7490234375	6255.17529296875	-5.7444167137146	2967.097900390625	6746.35693359375	9175.6259765625	6255.97216796875	7360.7294921875	4240.75	5906.5654296875	4509.58056640625	5804.380859375	7260.9052734375	4763.751953125	5165.12939453125	1738.5711669921875	7191.35546875	3493.33251953125	-424.6172790527344	5784.0927734375	4411.0439453125	6766.9833984375	1494.1541748046875	6041.90478515625	7120.95361328125	7760.7451171875	7465.61865234375	8858.9755859375	7511.97998046875	8423.00390625	6992.08740234375	8429.8642578125	8632.228515625	7151.0859375	7422.96044921875	8737.85546875	7763.9931640625	6869.64453125	6751.9091796875	5960.123046875	8028.1787109375	7992.56591796875	9023.80078125	9897.4501953125	7212.76708984375	7060.3203125	6690.92724609375	7117.7353515625	7310.90771484375	8873.6875	6862.44677734375	7952.72314453125	7006.1943359375	6599.0634765625	10514.7490234375	7817.9287109375	10449.6142578125	8061.4931640625	8732.607421875	7689.14892578125	7468.576171875	9130.1005859375	4137.30419921875	7918.96142578125	8408.5458984375	8213.3935546875	8054.27099609375	9402.572265625	6871.4130859375	8899.4404296875	7400.22607421875	6307.71435546875	6601.28466796875	6243.16357421875	7909.81884765625	8921.6767578125	7641.013671875	8842.5498046875	7064.34619140625	7318.13037109375	6927.533203125	8121.7607421875	7616.181640625	8400.8740234375	6932.41015625	8227.7998046875	7074.78271484375	6986.17041015625	10954.630859375	5629.45751953125	9895.28515625	7746.75
