frame_start	frame_end	Left-Cerebral-White-Matter	Left-Cerebellum-White-Matter	Left-Cerebellum-Cortex	Left-Thalamus	Left-Caudate	Left-Putamen	Left-Pallidum	Brain-Stem	Left-Hippocampus	Left-Amygdala	CSF	Left-Accumbens-area	Left-VentralDC	Left-choroid-plexus	Right-Cerebral-White-Matter	Right-Cerebellum-White-Matter	Right-Cerebellum-Cortex	Right-Thalamus	Right-Caudate	Right-Putamen	Right-Pallidum	Right-Hippocampus	Right-Amygdala	Right-Accumbens-area	Right-VentralDC	Right-choroid-plexus	AirCavity	Skull	Vermis	Pons	CSF-ExtraCerebral	Head-ExtraCerebral	ctx-lh-bankssts	ctx-lh-caudalanteriorcingulate	ctx-lh-caudalmiddlefrontal	ctx-lh-cuneus	ctx-lh-entorhinal	ctx-lh-fusiform	ctx-lh-inferiorparietal	ctx-lh-inferiortemporal	ctx-lh-isthmuscingulate	ctx-lh-lateraloccipital	ctx-lh-lateralorbitofrontal	ctx-lh-lingual	ctx-lh-medialorbitofrontal	ctx-lh-middletemporal	ctx-lh-parahippocampal	ctx-lh-paracentral	ctx-lh-parsopercularis	ctx-lh-parsorbitalis	ctx-lh-parstriangularis	ctx-lh-pericalcarine	ctx-lh-postcentral	ctx-lh-posteriorcingulate	ctx-lh-precentral	ctx-lh-precuneus	ctx-lh-rostralanteriorcingulate	ctx-lh-rostralmiddlefrontal	ctx-lh-superiorfrontal	ctx-lh-superiorparietal	ctx-lh-superiortemporal	ctx-lh-supramarginal	ctx-lh-frontalpole	ctx-lh-temporalpole	ctx-lh-transversetemporal	ctx-lh-insula	ctx-rh-bankssts	ctx-rh-caudalanteriorcingulate	ctx-rh-caudalmiddlefrontal	ctx-rh-cuneus	ctx-rh-entorhinal	ctx-rh-fusiform	ctx-rh-inferiorparietal	ctx-rh-inferiortemporal	ctx-rh-isthmuscingulate	ctx-rh-lateraloccipital	ctx-rh-lateralorbitofrontal	ctx-rh-lingual	ctx-rh-medialorbitofrontal	ctx-rh-middletemporal	ctx-rh-parahippocampal	ctx-rh-paracentral	ctx-rh-parsopercularis	ctx-rh-parsorbitalis	ctx-rh-parstriangularis	ctx-rh-pericalcarine	ctx-rh-postcentral	ctx-rh-posteriorcingulate	ctx-rh-precentral	ctx-rh-precuneus	ctx-rh-rostralanteriorcingulate	ctx-rh-rostralmiddlefrontal	ctx-rh-superiorfrontal	ctx-rh-superiorparietal	ctx-rh-superiortemporal	ctx-rh-supramarginal	ctx-rh-frontalpole	ctx-rh-temporalpole	ctx-rh-transversetemporal	ctx-rh-insula
0	30	253.76223754882812	269.62548828125	350.12347412109375	227.94009399414062	268.411376953125	407.89520263671875	294.482421875	327.06396484375	361.48565673828125	224.0487823486328	196.25067138671875	242.33139038085938	431.9119567871094	306.8149108886719	256.69952392578125	250.37249755859375	287.1643371582031	368.6530456542969	322.6868896484375	468.8233947753906	314.2904052734375	297.52154541015625	335.4580078125	353.7789306640625	416.9103088378906	213.34278869628906	87.30580139160156	130.72531127929688	292.08465576171875	206.0546875	362.9454650878906	143.6474609375	399.3029479980469	343.93017578125	498.75469970703125	387.0503234863281	226.31504821777344	299.9124450683594	363.3133850097656	309.20367431640625	323.214111328125	255.35426330566406	397.4969482421875	333.2900695800781	531.1275024414062	286.2690734863281	221.32363891601562	314.2674255371094	518.6394653320312	384.9609069824219	423.77154541015625	454.4300537109375	414.3955383300781	327.92633056640625	377.2069091796875	404.7464599609375	407.4293518066406	368.8553466796875	390.4051818847656	323.3626403808594	421.90606689453125	393.1419677734375	387.78955078125	265.7595520019531	897.336669921875	548.625	415.22479248046875	423.26446533203125	385.3800354003906	417.556884765625	217.45193481445312	290.53656005859375	359.001220703125	299.0321350097656	284.34124755859375	301.8904113769531	427.64495849609375	374.4219055175781	358.4691467285156	300.98822021484375	599.0413818359375	304.4195556640625	456.03033447265625	375.66259765625	439.5799865722656	531.68701171875	380.7547912597656	362.09796142578125	391.583251953125	405.970703125	458.5222473144531	337.6138000488281	381.47119140625	368.1686706542969	370.0086364746094	421.21563720703125	321.7349853515625	282.8285217285156	467.9136047363281	488.5423278808594
30	60	2857.615234375	3637.429931640625	4624.09130859375	4329.1787109375	3757.234619140625	4566.01123046875	3285.73046875	3423.639404296875	3840.33056640625	2988.583984375	2395.000244140625	3701.4619140625	3511.03466796875	3752.021240234375	2967.8623046875	3606.082763671875	4729.19091796875	4390.17236328125	3315.805908203125	4713.78173828125	3399.250732421875	3808.453369140625	2859.855712890625	4433.42236328125	4245.90869140625	2851.389404296875	982.1456298828125	1419.45361328125	4365.01953125	3448.79052734375	3811.137451171875	1504.1497802734375	4757.26416015625	3532.0302734375	5245.6796875	4950.623046875	3494.160400390625	3868.762939453125	4172.82421875	3889.416748046875	4560.5830078125	4011.0498046875	4403.86279296875	4707.65478515625	4364.93603515625	4060.158935546875	3746.256103515625	4742.26904296875	4714.40966796875	4720.1171875	4785.13525390625	5533.0107421875	4136.47509765625	4386.35693359375	4463.6083984375	4885.75634765625	4218.076171875	4622.48193359375	4262.63623046875	4188.7607421875	4379.8818359375	4529.466796875	4896.82958984375	2693.09423828125	5958.73779296875	4770.52783203125	4733.3251953125	4485.55859375	4874.3388671875	5091.78857421875	3106.2646484375	3796.99658203125	4543.19287109375	4094.890625	4993.8056640625	4231.74755859375	4345.134765625	4860.826171875	4393.39697265625	4176.0615234375	3486.32666015625	4467.955078125	4728.291015625	4728.06494140625	4937.70849609375	6310.5478515625	4431.4501953125	4690.609375	4235.63916015625	4578.91162109375	4612.48291015625	4546.17431640625	4522.58984375	4205.1982421875	4469.05126953125	4673.9306640625	3936.042236328125	3597.017333984375	6491.423828125	4633.484375
60	90	6377.880859375	8051.9013671875	9790.7080078125	9177.9736328125	8155.98779296875	10566.751953125	8197.8505859375	6866.24169921875	7952.625	7053.66845703125	5101.51025390625	9902.3603515625	7792.4560546875	7762.27197265625	6460.130859375	7808.6181640625	9865.1318359375	9812.2001953125	8283.7861328125	10331.904296875	7456.20751953125	7940.06103515625	7508.474609375	8482.876953125	7471.70654296875	8506.1923828125	2045.5897216796875	2986.709228515625	9900.3583984375	7386.1357421875	7719.4130859375	3062.852294921875	9601.7373046875	8762.8154296875	10391.662109375	10914.3603515625	7079.697265625	8959.2939453125	9107.0791015625	8600.21484375	9548.5205078125	9186.4365234375	9982.8125	10265.3369140625	8901.4765625	9093.3603515625	8627.08984375	9002.68359375	10125.3310546875	9944.099609375	10649.623046875	12220.013671875	9167.6025390625	10074.2021484375	9653.4267578125	10554.3681640625	8757.5703125	10306.736328125	9379.763671875	9519.828125	9030.0791015625	9626.25390625	10126.033203125	7227.8125	11863.7734375	9313.71484375	9824.8017578125	9577.98046875	9779.017578125	11319.880859375	5512.7890625	9225.4921875	9600.2890625	9133.8134765625	10240.5517578125	9385.7529296875	9505.4443359375	10946.0185546875	9349.2802734375	9114.75	7880.29443359375	8877.8349609375	10213.626953125	10519.0263671875	10413.6787109375	13792.947265625	9332.54296875	10171.5234375	9050.4111328125	10734.38671875	9501.986328125	9922.986328125	9440.5185546875	9604.478515625	9347.658203125	9731.3251953125	10648.306640625	6833.25634765625	11872.6240234375	9002.015625
90	120	10229.4404296875	12373.482421875	15406.544921875	15225.76171875	13680.31640625	16663.36328125	13134.0400390625	10939.9443359375	12585.970703125	11333.7333984375	7976.330078125	14738.37890625	12155.5947265625	10493.3896484375	10408.1572265625	12200.615234375	15547.2060546875	14642.818359375	12892.626953125	16280.490234375	11574.78125	12552.6240234375	9271.2275390625	13423.16015625	12592.7119140625	10109.3330078125	3435.309814453125	4886.42333984375	16206.8916015625	11500.2666015625	11914.2626953125	5197.49365234375	16459.693359375	13546.3330078125	15986.091796875	17983.013671875	11663.18359375	13848.5009765625	14568.0166015625	13777.10546875	16158.2255859375	13929.0625	15502.4130859375	16414.74609375	14507.7333984375	14258.689453125	13441.94140625	14555.4443359375	16455.484375	15448.1806640625	16915.388671875	19494.673828125	14817.9560546875	15694.8251953125	15880.0478515625	16338.0634765625	13902.3037109375	15973.17578125	14774.060546875	14596.427734375	14327.0830078125	15037.3974609375	15451.6982421875	10965.68359375	20401.646484375	15201.490234375	16072.8232421875	14670.408203125	16445.33203125	18121.70703125	9425.220703125	14283.14453125	15328.6337890625	14165.8974609375	16264.76171875	15048.5146484375	15111.6376953125	17067.892578125	14065.99609375	14412.412109375	12107.5888671875	14743.888671875	16910.6171875	15472.4326171875	15458.40625	20424.150390625	15158.6318359375	16361.287109375	14991.8173828125	16533.71875	15445.927734375	15691.1796875	15177.158203125	14659.857421875	14665.5576171875	15974.6630859375	14012.0810546875	11132.0361328125	20338.4296875	13903.220703125
120	150	13912.7333984375	16893.640625	21493.466796875	20910.8515625	19292.158203125	24094.04296875	16561.8515625	14676.248046875	16574.767578125	15368.0751953125	10653.2216796875	19308.888671875	16757.486328125	13893.0224609375	14056.8056640625	17493.701171875	21457.65234375	20982.06640625	19183.154296875	22950.84375	15979.8310546875	15654.1181640625	14075.7119140625	18758.0078125	17144.650390625	13418.962890625	4490.3857421875	6685.2724609375	21111.2109375	16636.84765625	15809.9111328125	7237.578125	22049.271484375	18558.416015625	21609.609375	24024.890625	14845.2900390625	19232.84375	19995.69921875	18960.9453125	20976.560546875	19680.07421875	20734.123046875	22568.451171875	19382.76953125	19185.1796875	18537.001953125	18959.1796875	23152.091796875	21114.884765625	22816.146484375	25852.822265625	19869.408203125	21184.67578125	21368.841796875	22272.341796875	19369.412109375	22481.876953125	20286.630859375	19817.283203125	19270.326171875	20782.2421875	21791.6328125	15984.931640625	25344.736328125	19212.8359375	22159.462890625	19473.361328125	22026.876953125	24600.310546875	11974.1689453125	19305.125	21122.572265625	19243.87890625	21155.09765625	20366.130859375	20129.0234375	22690.76953125	20102.587890625	19510.95703125	16861.087890625	19611.21875	22222.669921875	21021.208984375	21898.16015625	27813.982421875	20257.189453125	21641.541015625	20961.033203125	23029.060546875	21054.923828125	21778.796875	20648.466796875	20061.57421875	19719.453125	21465.6953125	21563.17578125	14779.4619140625	26313.375	18842.3671875
150	180	14912.2255859375	18264.36328125	22350.765625	21738.091796875	19752.6328125	25162.166015625	18457.099609375	15612.7119140625	16787.6484375	15364.48046875	10958.439453125	21937.7578125	17301.11328125	13665.47265625	15060.7646484375	18420.978515625	22470.81640625	22080.271484375	19459.548828125	24325.158203125	17431.890625	16760.177734375	13864.7880859375	16956.15234375	17560.587890625	14960.87890625	4421.59619140625	6797.9375	21558.685546875	18052.5234375	16131.39453125	7384.82080078125	22606.46484375	17919.84375	23024.501953125	26988.6953125	16547.42578125	20921.029296875	21075.529296875	20874.583984375	21894.615234375	20743.125	22352.927734375	23952.064453125	19947.849609375	20960.140625	18612.64453125	19525.447265625	23977.259765625	23210.76171875	24415.6953125	28152.111328125	20689.30859375	22016.052734375	22281.4453125	24147.484375	20557.615234375	23618.0234375	21736.580078125	20768.447265625	20766.966796875	21737.0546875	23893.34765625	15225.2744140625	26912.150390625	20556.029296875	24109.26171875	20272.173828125	23283.20703125	26085.92578125	12779.4921875	20796.513671875	22834.08984375	21170.568359375	23211.45703125	21758.900390625	21441.224609375	24277.826171875	20988.6953125	20421.19140625	18195.521484375	20486.8359375	22722.56640625	22222.1953125	22801.416015625	28854.759765625	21322.2109375	22641.380859375	21652.404296875	24620.78125	21467.87109375	23283.197265625	21595.57421875	21293.9296875	20993.494140625	23297.2578125	22628.337890625	15859.5732421875	26958.9765625	19930.583984375
180	240	14539.9931640625	17475.607421875	21735.845703125	21331.693359375	19814.77734375	24471.43359375	17930.765625	15050.7900390625	16779.873046875	15835.4140625	10373.193359375	21015.5546875	16406.625	13592.4384765625	14690.740234375	18138.22265625	21848.5625	21495.224609375	19024.7109375	23438.154296875	18262.6015625	15679.7236328125	13775.681640625	19224.017578125	16994.228515625	13071.9658203125	4185.1201171875	6760.6484375	21086.126953125	16696.5703125	15276.92578125	7423.7392578125	22625.830078125	17963.287109375	22215.58203125	24860.373046875	15531.03515625	20465.12890625	20457.283203125	19687.69921875	22220.6015625	20192.55078125	20998.767578125	22717.765625	18986.24609375	20390.93359375	17403.123046875	19445.357421875	22132.267578125	21230.3046875	23828.36328125	26535.625	20176.654296875	21425.873046875	21493.404296875	22737.5234375	20387.580078125	22882.416015625	20911.029296875	20672.033203125	19966.634765625	20963.72265625	22148.09375	16031.1943359375	25931.8359375	19515.83984375	23025.341796875	19796.4921875	22379.50390625	25369.126953125	11803.8671875	20374.951171875	21776.61328125	20108.26953125	22825.66796875	21107.333984375	20190.01953125	23305.45703125	19514.384765625	19881.28125	17671.01171875	19941.587890625	21759.984375	20894.224609375	21908.71484375	27370.640625	20876.123046875	21960.068359375	20410.6640625	23825.9609375	20827.119140625	22403.4296875	20692.65234375	20570.1640625	20203.779296875	22147.587890625	22550.609375	15095.0849609375	23779.873046875	18717.080078125
240	300	13907.3759765625	16387.43359375	20235.083984375	20401.099609375	18887.5625	23036.970703125	16999.365234375	14054.330078125	15490.3037109375	14760.3720703125	9814.146484375	18593.81640625	15002.484375	10950.1171875	14013.662109375	17052.638671875	20487.228515625	21027.107421875	18442.794921875	21625.2734375	16564.87109375	15128.591796875	15037.86328125	17162.5859375	16508.5703125	10995.17578125	4041.15087890625	6637.533203125	19631.6015625	15951.03125	14011.8701171875	7315.39599609375	20932.09765625	17029.1171875	20598.169921875	23220.4140625	15055.966796875	19096.27734375	18978.06640625	18952.88671875	19390.197265625	18845.537109375	19385.4296875	20883.185546875	17862.447265625	19414.26953125	17280.8515625	18131.1171875	20601.197265625	19240.951171875	21735.572265625	23119.15234375	18283.048828125	19947.90625	19449.306640625	21360.884765625	18703.73046875	21240.021484375	19535.64453125	18656.759765625	18517.787109375	18967.029296875	20937.71875	15405.51171875	22273.205078125	18010.640625	20551.73046875	18617.6015625	20716.541015625	22903.52734375	11181.55078125	19098.591796875	20065.330078125	19088.271484375	20665.3359375	19672.89453125	18969.42578125	21408.029296875	18872.2109375	19116.40625	17169.197265625	17988.74609375	20172.392578125	19224.57421875	20652.048828125	25599.26171875	18453.759765625	20106.505859375	19093.669921875	21904.833984375	18898.4140625	20669.826171875	19086.1640625	18855.2265625	19258.9140625	20542.8984375	20285.671875	14227.2421875	22813.63671875	17755.22265625
300	360	12991.08203125	15776.4287109375	18492.55078125	19245.79296875	16999.880859375	21155.7890625	16673.23828125	13172.8564453125	14892.212890625	14063.5029296875	8955.4658203125	18319.580078125	15411.4033203125	9171.7958984375	13086.681640625	15916.2109375	18553.10546875	19617.5234375	17041.560546875	20630.345703125	15968.0361328125	13519.1220703125	14213.2197265625	17163.140625	15205.30078125	9419.5224609375	3879.013427734375	6551.70947265625	18037.876953125	14982.0625	12704.7177734375	7168.22509765625	18135.34375	15091.06640625	18765.90625	21050.3046875	14121.841796875	18034.142578125	17477.537109375	17427.04296875	17545.07421875	17061.87890625	17668.986328125	18761.8671875	16645.5859375	17901.01171875	15810.4716796875	16176.8701171875	18512.041015625	17462.08203125	19811.392578125	21469.0859375	16693.939453125	17754.6484375	17504.203125	19239.357421875	17452.453125	19495.990234375	17699.85546875	16992.029296875	17098.080078125	17174.189453125	18813.470703125	15619.9736328125	20514.96875	16894.740234375	19051.0703125	17183.521484375	18209.63671875	20462.96875	11018.822265625	17684.97265625	18517.8828125	17610.0078125	18551.48828125	17692.2578125	17285.13671875	19307.21875	17603.779296875	17341.123046875	15283.1953125	16722.712890625	18457.431640625	17897.55078125	18300.73828125	22199.814453125	16929.546875	18026.408203125	17390.443359375	19634.9921875	18422.501953125	18775.15625	17830.1640625	17175.189453125	17230.326171875	18637.529296875	19032.63671875	13399.701171875	18184.2734375	16458.23828125
360	480	11779.390625	13799.939453125	15903.8037109375	17302.63671875	15094.9560546875	18263.400390625	14553.7275390625	12187.9833984375	13125.3974609375	13522.0185546875	8102.4912109375	15720.240234375	13628.62109375	8537.669921875	11819.46484375	14267.3251953125	15958.296875	16902.73828125	14345.8408203125	17988.33203125	14875.3193359375	12352.5810546875	12993.34765625	14771.673828125	14016.453125	8288.640625	3535.049072265625	6270.38330078125	15589.8720703125	13852.30859375	10936.3427734375	6945.18994140625	15959.3720703125	14140.1845703125	15717.5244140625	17457.291015625	13053.5546875	15673.9267578125	15022.34375	15251.115234375	15593.048828125	14752.65625	15295.31640625	16301.7431640625	14503.9853515625	15527.728515625	13976.91796875	14554.404296875	15548.0234375	15564.24609375	16599.640625	18002.033203125	14278.6328125	15725.775390625	15235.119140625	16570.66796875	15385.779296875	16665.986328125	15179.7119140625	14813.9453125	15152.138671875	15157.5869140625	16702.05078125	13340.9248046875	17281.251953125	14746.083984375	17033.8515625	14788.09375	15492.16796875	17469.767578125	9744.67578125	15577.5712890625	15931.7197265625	15563.8134765625	16051.33203125	15332.0869140625	14811.5087890625	16639.00390625	14948.7470703125	15305.248046875	14355.2568359375	14371.4609375	15069.8173828125	14910.5869140625	15471.1162109375	18757.349609375	14405.9072265625	15706.609375	15106.833984375	16717.306640625	16268.826171875	15851.21875	14808.3076171875	14972.30859375	15173.7998046875	15800.404296875	15898.9814453125	12367.7255859375	16671.4921875	14190.1513671875
480	600	10384.740234375	12358.232421875	13322.1904296875	14983.4306640625	12250.1064453125	15694.2763671875	13210.3017578125	10414.5693359375	11067.7099609375	11745.291015625	6948.28955078125	13892.06640625	12534.9794921875	7638.93359375	10379.7021484375	12248.57421875	13269.359375	14614.6650390625	11802.642578125	14928.7041015625	12935.830078125	10861.896484375	11124.1982421875	13005.5576171875	12091.533203125	7760.29931640625	3307.057861328125	5953.10791015625	13016.9189453125	12482.3876953125	9054.8798828125	6689.59521484375	13431.3203125	12444.7880859375	12938.1318359375	14363.4130859375	11369.9208984375	13661.4765625	12528.12109375	13241.7216796875	12923.5849609375	12198.8037109375	12720.4306640625	13343.3251953125	12434.896484375	13316.1220703125	11801.98828125	11808.1396484375	12929.5146484375	12668.63671875	13931.9306640625	13848.9384765625	11931.4560546875	13392.92578125	12773.740234375	13362.4404296875	12959.81640625	13661.4765625	12400.033203125	12398.478515625	12699.1328125	12523.1416015625	13087.65234375	11617.8486328125	14231.9677734375	12670.015625	13340.3505859375	12408.5458984375	13041.1171875	14108.728515625	8855.4541015625	13169.880859375	13244.931640625	13207.9248046875	13491.6484375	12571.3212890625	12549.5048828125	13210.1826171875	12687.9228515625	12739.23828125	11731.4755859375	11791.158203125	12452.279296875	12238.2109375	12655.8857421875	14669.1396484375	11820.1962890625	13332.3349609375	12146.1474609375	13676.6513671875	13051.546875	13108.1455078125	12313.5087890625	12396.4892578125	12485.5380859375	12772.2509765625	13179.107421875	11321.6396484375	12683.76171875	12311.36328125
600	900	8846.9580078125	10093.8369140625	10005.7578125	11846.455078125	9320.3701171875	12027.90625	11722.4873046875	8862.3896484375	9322.4951171875	10010.3291015625	5835.4033203125	10773.0341796875	10314.6572265625	6497.466796875	8828.3349609375	10451.814453125	9946.7431640625	11860.5576171875	8610.4912109375	11734.7216796875	11074.4541015625	9028.22265625	9523.5498046875	10046.4423828125	10500.251953125	6140.31396484375	2998.809326171875	5684.84912109375	10100.857421875	10279.353515625	7050.56982421875	6287.8544921875	10415.8056640625	9386.7841796875	9777.6162109375	11102.08984375	9632.443359375	10807.888671875	9744.4072265625	10684.798828125	10098.498046875	9573.69140625	10043.046875	10507.35546875	9782.2177734375	10546.0478515625	9760.6376953125	9131.8564453125	10145.5361328125	10034.3349609375	10758.904296875	10995.8154296875	9176.79296875	10307.1923828125	9866.07421875	10362.9404296875	10275.078125	10671.4072265625	9588.5986328125	9391.5009765625	10227.771484375	9867.3701171875	10879.9345703125	9897.7001953125	10811.0771484375	10273.150390625	11018.173828125	9801.7353515625	9542.8349609375	11016.1484375	7573.75341796875	10710.2763671875	10066.2939453125	10572.388671875	10368.763671875	10037.416015625	9858.244140625	10419.3017578125	9950.6240234375	10201.216796875	9806.7080078125	9100.56640625	9691.2587890625	9696.1181640625	9694.3642578125	11050.9755859375	8863.275390625	10242.5458984375	9485.611328125	10635.462890625	10058.265625	10078.1650390625	9378.6865234375	9457.640625	10003.2978515625	9874.548828125	10267.7822265625	9311.2001953125	10094.98046875	9940.3935546875
900	1200	7714.3212890625	8275.8642578125	7413.1298828125	9131.310546875	7006.2607421875	9323.2744140625	9687.5703125	7140.46240234375	7406.39013671875	8123.15771484375	4889.08642578125	8688.123046875	8617.40625	5954.75439453125	7660.2158203125	8381.11328125	7267.06689453125	8842.5478515625	6477.9677734375	8714.6494140625	9523.5244140625	7067.88623046875	7715.1748046875	7866.615234375	8823.0458984375	5548.3388671875	2753.0859375	5500.19287109375	7193.82470703125	8353.9873046875	5683.0615234375	6001.92333984375	8297.005859375	7940.78759765625	7907.984375	8952.2841796875	7716.6435546875	8875.693359375	7814.69775390625	8936.7177734375	8049.68603515625	7747.78466796875	8149.775390625	8368.708984375	7982.365234375	8580.69921875	7789.47265625	7078.7158203125	8047.05029296875	8258.37109375	8619.7841796875	8664.6640625	7249.74755859375	8276.30078125	7846.62646484375	8220.8974609375	8119.966796875	8579.4267578125	7569.84619140625	7434.74267578125	8306.8017578125	7647.57177734375	8372.9814453125	8179.6240234375	8471.5283203125	8275.0869140625	8613.537109375	7633.24267578125	7421.95361328125	8948.080078125	6671.26904296875	8622.2158203125	7936.20947265625	8518.7509765625	8413.45703125	8226.1572265625	7804.51318359375	8423.115234375	8100.02978515625	8214.4248046875	7825.962890625	7125.35400390625	7686.8466796875	7687.00439453125	7859.2490234375	9016.2802734375	7088.8955078125	8104.65283203125	7254.3984375	8297.49609375	8022.81787109375	8055.61474609375	7300.31201171875	7372.09326171875	7993.6328125	7829.3310546875	8162.9150390625	7854.009765625	8284.697265625	8073.8720703125
1200	1500	7058.83251953125	7259.72216796875	6111.7021484375	7443.88330078125	6121.2587890625	7662.79052734375	8255.0078125	6183.44775390625	6410.31396484375	6647.7001953125	4455.216796875	6679.61962890625	7456.1279296875	5221.74951171875	7012.58447265625	7388.37353515625	5971.02783203125	7414.86181640625	5421.912109375	7406.1591796875	8434.5888671875	6040.5859375	6042.515625	6734.177734375	7538.58447265625	4773.38427734375	2610.908447265625	5326.10498046875	5981.556640625	7511.77294921875	5116.87841796875	5842.91748046875	7242.556640625	6964.4189453125	6904.6435546875	7636.46728515625	6794.53759765625	7740.34814453125	6951.9189453125	7664.2763671875	7199.8544921875	6954.40234375	7002.30029296875	7434.8935546875	6839.78955078125	7418.724609375	7028.1796875	6196.32275390625	7356.10986328125	7310.24365234375	7537.23974609375	7875.328125	6573.3486328125	6987.5322265625	6806.79931640625	7329.208984375	7223.31103515625	7548.080078125	6559.72900390625	6563.48046875	7206.853515625	6770.8564453125	7030.1240234375	7086.6103515625	7363.93310546875	7271.4091796875	7553.12890625	6929.76220703125	6479.00048828125	7636.296875	5439.88037109375	7583.40673828125	6975.38134765625	7417.1953125	7233.83935546875	7353.97705078125	6909.53515625	7409.49267578125	6886.5078125	7021.4697265625	6783.4716796875	6122.6513671875	6716.3955078125	6632.76171875	6949.59619140625	7998.681640625	6087.85888671875	6874.05859375	6407.78955078125	7282.099609375	7245.58056640625	7052.322265625	6339.111328125	6466.509765625	6919.75732421875	6637.81005859375	6866.57421875	6948.3125	7369.7138671875	7084.66259765625
1500	1800	6785.6552734375	6452.5859375	5350.5166015625	6372.1416015625	5417.73974609375	6930.3056640625	7629.3330078125	5847.66357421875	5710.74658203125	6411.09228515625	4140.8955078125	6317.9609375	6665.720703125	4967.41455078125	6715.716796875	6720.41357421875	5250.39599609375	6485.82666015625	5069.02001953125	6833.39501953125	7060.43603515625	5381.34228515625	5461.44140625	5256.45263671875	6932.80517578125	4718.1591796875	2523.689697265625	5253.693359375	5258.615234375	6847.23974609375	4815.08642578125	5765.14208984375	6519.5830078125	6133.91845703125	6633.4501953125	7190.34130859375	6147.43017578125	7254.07421875	6502.54345703125	7165.55517578125	6753.611328125	6689.12060546875	6648.98291015625	7072.46923828125	6614.986328125	6927.568359375	6271.33056640625	5958.8017578125	6758.46240234375	6959.62548828125	7421.77734375	6992.75927734375	6135.732421875	6569.111328125	6301.814453125	6720.4375	6240.84228515625	7109.00341796875	6092.2216796875	6243.84765625	6745.40576171875	6282.8671875	6729.20703125	6493.263671875	6994.927734375	6689.7978515625	7272.2763671875	6146.615234375	6074.1201171875	7224.1669921875	4969.9248046875	7110.8056640625	6686.505859375	6804.20068359375	6740.39306640625	6917.12353515625	6398.8603515625	6934.5380859375	6357.94970703125	6365.5458984375	6190.2236328125	5648.767578125	6297.2236328125	6256.25244140625	6433.7529296875	7850.169921875	5819.177734375	6339.52197265625	5868.6904296875	6754.76708984375	6497.99951171875	6592.28564453125	5881.228515625	6158.46728515625	6425.23095703125	6276.98583984375	6567.921875	6276.4921875	7022.931640625	6447.34375
1800	2100	6578.40234375	6361.94677734375	4983.35986328125	5852.77001953125	5224.52587890625	6400.10986328125	7096.10791015625	5124.955078125	5333.0439453125	5573.798828125	3951.972900390625	5718.68359375	6133.5283203125	4840.95947265625	6505.39208984375	6379.8935546875	4836.56494140625	5720.2138671875	4676.65380859375	6141.9658203125	6923.998046875	4893.7451171875	5186.435546875	5405.3046875	6238.14697265625	4311.03759765625	2515.742919921875	5246.4150390625	4962.98681640625	6371.60498046875	4731.7265625	5665.76171875	6459.71240234375	6013.46533203125	6551.23974609375	7000.88037109375	5689.2802734375	7023.6728515625	6327.53173828125	6879.41455078125	6649.38720703125	6472.61376953125	6569.9716796875	6761.6025390625	6063.37744140625	6769.80126953125	6118.63037109375	5461.2841796875	6461.5859375	6734.3369140625	7127.18896484375	6980.41650390625	5886.67333984375	6437.6015625	6093.0927734375	6556.8779296875	6135.50439453125	6856.400390625	5925.1142578125	5935.99951171875	6502.93505859375	6208.3037109375	6064.33740234375	6260.2275390625	6778.8046875	6296.60302734375	7132.58740234375	5829.45849609375	5856.859375	6824.21044921875	4953.07275390625	6742.373046875	6251.27099609375	6678.96533203125	6602.1591796875	6730.2236328125	6331.65380859375	6747.04052734375	6174.1982421875	6238.5693359375	5788.0419921875	5443.5615234375	6166.4130859375	6339.185546875	6162.2802734375	7177.65869140625	5582.32373046875	5951.50390625	5728.4873046875	6445.970703125	6119.89794921875	6349.03125	5595.1689453125	5911.0146484375	6006.7431640625	6078.634765625	6288.30615234375	5806.43359375	6290.67578125	6447.5712890625
2100	2400	6393.13427734375	5882.36767578125	4680.00146484375	5362.51806640625	4760.8291015625	6256.84912109375	6519.875	4871.68994140625	5203.73046875	5514.1357421875	3817.210693359375	5934.20556640625	5806.02099609375	4842.83154296875	6314.90234375	6124.6171875	4545.2294921875	5439.89404296875	4408.6552734375	6076.32958984375	6445.75048828125	5093.91064453125	4824.5244140625	4929.03271484375	5917.88525390625	4130.12353515625	2424.462890625	5182.6630859375	4395.78173828125	6039.96875	4640.0576171875	5512.8740234375	6400.3681640625	6000.6455078125	6056.9013671875	6695.90966796875	5864.37451171875	6849.759765625	6075.93017578125	6842.16455078125	6623.5380859375	6239.6455078125	6332.0615234375	6644.11669921875	5888.21533203125	6470.66259765625	6121.40576171875	5314.03466796875	6511.14013671875	6310.8056640625	6966.1162109375	7329.15283203125	5773.9013671875	6054.88916015625	5832.56494140625	6140.38525390625	5962.93115234375	6548.14208984375	5604.09130859375	5749.76416015625	6276.111328125	5974.92333984375	6173.0888671875	5931.92333984375	6412.2568359375	6345.25390625	6690.27978515625	5862.2841796875	5684.54443359375	6686.85986328125	4975.70703125	6568.49658203125	6179.107421875	6523.83349609375	6492.02685546875	6600.9765625	6073.15771484375	6528.4521484375	5886.759765625	5905.8251953125	5750.908203125	5213.607421875	6050.47607421875	6254.97119140625	6180.37939453125	6885.54931640625	5304.4296875	5821.4150390625	5528.83837890625	6342.5068359375	5865.1806640625	6114.28173828125	5445.34326171875	5713.3544921875	5888.03125	5780.86767578125	6007.56689453125	5420.400390625	6330.2734375	6092.654296875
