frame_start	frame_end	Left-Cerebral-White-Matter	Left-Cerebellum-White-Matter	Left-Cerebellum-Cortex	Left-Thalamus	Left-Caudate	Left-Putamen	Left-Pallidum	Brain-Stem	Left-Hippocampus	Left-Amygdala	CSF	Left-Accumbens-area	Left-VentralDC	Left-choroid-plexus	Right-Cerebral-White-Matter	Right-Cerebellum-White-Matter	Right-Cerebellum-Cortex	Right-Thalamus	Right-Caudate	Right-Putamen	Right-Pallidum	Right-Hippocampus	Right-Amygdala	Right-Accumbens-area	Right-VentralDC	Right-choroid-plexus	AirCavity	Skull	Vermis	Pons	CSF-ExtraCerebral	Head-ExtraCerebral	ctx-lh-bankssts	ctx-lh-caudalanteriorcingulate	ctx-lh-caudalmiddlefrontal	ctx-lh-cuneus	ctx-lh-entorhinal	ctx-lh-fusiform	ctx-lh-inferiorparietal	ctx-lh-inferiortemporal	ctx-lh-isthmuscingulate	ctx-lh-lateraloccipital	ctx-lh-lateralorbitofrontal	ctx-lh-lingual	ctx-lh-medialorbitofrontal	ctx-lh-middletemporal	ctx-lh-parahippocampal	ctx-lh-paracentral	ctx-lh-parsopercularis	ctx-lh-parsorbitalis	ctx-lh-parstriangularis	ctx-lh-pericalcarine	ctx-lh-postcentral	ctx-lh-posteriorcingulate	ctx-lh-precentral	ctx-lh-precuneus	ctx-lh-rostralanteriorcingulate	ctx-lh-rostralmiddlefrontal	ctx-lh-superiorfrontal	ctx-lh-superiorparietal	ctx-lh-superiortemporal	ctx-lh-supramarginal	ctx-lh-frontalpole	ctx-lh-temporalpole	ctx-lh-transversetemporal	ctx-lh-insula	ctx-rh-bankssts	ctx-rh-caudalanteriorcingulate	ctx-rh-caudalmiddlefrontal	ctx-rh-cuneus	ctx-rh-entorhinal	ctx-rh-fusiform	ctx-rh-inferiorparietal	ctx-rh-inferiortemporal	ctx-rh-isthmuscingulate	ctx-rh-lateraloccipital	ctx-rh-lateralorbitofrontal	ctx-rh-lingual	ctx-rh-medialorbitofrontal	ctx-rh-middletemporal	ctx-rh-parahippocampal	ctx-rh-paracentral	ctx-rh-parsopercularis	ctx-rh-parsorbitalis	ctx-rh-parstriangularis	ctx-rh-pericalcarine	ctx-rh-postcentral	ctx-rh-posteriorcingulate	ctx-rh-precentral	ctx-rh-precuneus	ctx-rh-rostralanteriorcingulate	ctx-rh-rostralmiddlefrontal	ctx-rh-superiorfrontal	ctx-rh-superiorparietal	ctx-rh-superiortemporal	ctx-rh-supramarginal	ctx-rh-frontalpole	ctx-rh-temporalpole	ctx-rh-transversetemporal	ctx-rh-insula
0	30	28.279390335083008	60.031532287597656	17.94715690612793	56.71547317504883	53.21155548095703	40.82865905761719	-25.301740646362305	86.37134552001953	18.339519500732422	47.65489196777344	-37.8070182800293	-55.626434326171875	31.53833770751953	-128.08775329589844	20.359346389770508	35.94996643066406	20.980913162231445	45.27950668334961	73.07086181640625	41.32200241088867	5.118856906890869	75.53112030029297	102.07623291015625	75.62203979492188	37.815284729003906	766.182373046875	14.831583976745605	40.351505279541016	-41.05641555786133	24.678970336914062	2.669886350631714	30.77505874633789	-18.978633880615234	-0.17559166252613068	38.449684143066406	56.15250778198242	37.254703521728516	-8.150437355041504	12.562424659729004	23.5045108795166	-53.66001510620117	-19.643718719482422	53.16297149658203	94.06397247314453	-8.872573852539062	21.55376434326172	2.0921683311462402	32.95778274536133	24.81914710998535	-8.706730842590332	97.8563461303711	9.003584861755371	1.481208324432373	146.50379943847656	6.748667240142822	13.17522144317627	44.793094635009766	5.333630561828613	25.987735748291016	0.04296402633190155	1.571850061416626	7.4105610847473145	64.75299835205078	75.24838256835938	-71.95518493652344	92.26528930664062	-1.0111896991729736	39.10987854003906	4.996809959411621	-37.641502380371094	150.58168029785156	12.262685775756836	9.153812408447266	40.49367904663086	95.5637435913086	-14.084357261657715	71.70011138916016	22.78826332092285	17.79927635192871	6.320800304412842	11.618827819824219	41.825645446777344	23.77260398864746	-7.877809524536133	38.22526931762695	7.480790138244629	18.869951248168945	-2.8080382347106934	9.872050285339355	87.63613891601562	58.296356201171875	67.87371063232422	9.494333267211914	8.113182067871094	67.67430877685547	43.8347282409668	40.14189910888672	4.12686014175415	-78.1864242553711	62.17387390136719
30	60	776.1174926757812	1654.450439453125	2535.21435546875	3154.86279296875	4555.111328125	4303.37744140625	1472.9482421875	2461.33203125	4418.8515625	2516.28515625	1289.4150390625	3615.95849609375	2261.043212890625	4995.74658203125	846.5787353515625	1672.3624267578125	2293.864501953125	3341.03564453125	3525.983642578125	4656.5966796875	1900.966064453125	3058.77197265625	2345.7734375	5336.4970703125	2356.3408203125	7510.2294921875	525.9658203125	691.9005126953125	2938.92822265625	2089.585205078125	2625.7099609375	873.0155639648438	3167.592041015625	4991.7001953125	4438.48388671875	5177.88037109375	4495.97119140625	4117.61669921875	3567.72216796875	3271.67236328125	5378.01953125	3627.766357421875	5220.28759765625	5483.5654296875	5268.609375	3349.077392578125	2527.402587890625	2367.6787109375	5145.24462890625	5220.6953125	4785.40869140625	6629.703125	3404.3115234375	4380.6083984375	4185.55224609375	3965.396240234375	5079.96240234375	5001.6328125	4680.654296875	2768.2216796875	4082.866943359375	4557.7080078125	3531.7158203125	2865.182373046875	7362.998046875	5844.7646484375	5070.185546875	4677.21923828125	3966.031982421875	4912.80029296875	4667.81982421875	3433.084228515625	3109.361083984375	2918.33203125	4864.8291015625	4452.8740234375	5736.78125	4488.0146484375	3644.15576171875	2906.741943359375	3199.589111328125	3730.515869140625	5377.8994140625	3907.493408203125	4770.1328125	7266.65869140625	3639.079345703125	4270.97265625	3310.052001953125	4525.72705078125	5057.21484375	4484.56298828125	3924.248046875	3044.63330078125	4073.017822265625	3797.89013671875	5703.97265625	3403.367919921875	5001.9306640625	5535.984375
60	90	3341.7802734375	8548.982421875	14581.732421875	17089.81640625	24374.431640625	25952.802734375	8806.4931640625	12039.7294921875	16626.443359375	10802.609375	6486.86083984375	25386.140625	11065.80859375	65587.2265625	3863.120361328125	7777.10107421875	14357.478515625	17564.076171875	23837.650390625	25249.98828125	9184.75	14949.376953125	11512.978515625	25785.572265625	11955.1416015625	63683.25	1800.1907958984375	3144.1123046875	14946.7177734375	10339.234375	8776.6181640625	3172.219970703125	22548.603515625	24644.927734375	26808.0859375	25754.798828125	20161.28515625	19613.904296875	21567.173828125	17386.796875	27159.060546875	22783.091796875	26938.732421875	28179.376953125	30445.04296875	20294.259765625	17254.751953125	19756.50390625	26458.4296875	25447.95703125	24869.666015625	41755.30078125	21726.86328125	23554.66796875	24657.736328125	25802.46484375	25496.83984375	28672.642578125	25874.943359375	20020.666015625	19311.4765625	22446.02734375	34230.5625	15539.2275390625	27421.77734375	21336.35546875	22550.443359375	18703.173828125	23497.060546875	29422.779296875	16991.240234375	19924.150390625	21093.951171875	17773.310546875	23748.806640625	25728.32421875	27158.447265625	23769.71484375	22321.7578125	19085.966796875	14492.4541015625	20488.009765625	24041.552734375	24620.12890625	25534.615234375	37552.375	23085.365234375	25136.86328125	22913.609375	24672.025390625	20581.55859375	25779.076171875	23991.884765625	18688.962890625	20411.89453125	22290.08984375	28426.2109375	17911.76953125	29454.765625	20346.8828125
90	120	6879.94140625	16804.8828125	29141.03125	32993.203125	49677.81640625	50245.75	18967.705078125	22804.07421875	33826.671875	23213.080078125	11210.9375	36391.42578125	23008.20703125	114175.9140625	7564.4658203125	15512.92578125	29061.19140625	34450.0859375	49339.59765625	49868.421875	16248.294921875	29846.537109375	25031.04296875	33934.02734375	24039.38671875	95155.453125	3094.74951171875	5912.861328125	30741.365234375	21036.7890625	12227.4951171875	5627.494140625	43162.73046875	46363.5	56678.94140625	54142.96484375	37504.1484375	38063.375	43396.75	36346.03515625	47877.56640625	48337.8046875	50988.87890625	55601.7890625	55079.2265625	40395.22265625	26347.208984375	41946.65234375	54810.52734375	54084.9375	52787.6015625	77002.34375	45674.9375	44740.0546875	49514.68359375	49860.453125	54359.9453125	59589.51953125	53466.5234375	42019.32421875	37609.47265625	47749.12109375	69492.7421875	31164.244140625	56873.57421875	40663.671875	43424.6171875	39199.87890625	52246.7109375	53244.9453125	31401.61328125	38403.91796875	43758.67578125	36117.32421875	50324.234375	52883.1484375	52862.4296875	50430.28515625	44349.20703125	40617.41796875	25605.65234375	44488.12109375	50009.41796875	51042.9140625	51747.29296875	75859.9765625	48741.234375	47070.36328125	46662.890625	49282.0234375	37202.16015625	54466.21875	49113.3203125	42855.33984375	37541.70703125	45961.9375	63400.3828125	36416.20703125	60869.90234375	35954.046875
120	150	9613.2255859375	25208.4921875	43779.6875	48601.9453125	71658.3359375	77345.8671875	21484.181640625	31805.220703125	45820.1328125	36798.08203125	17734.05078125	55840.6484375	33591.27734375	144954.03125	10571.8876953125	22542.58203125	44264.70703125	51989.69921875	76078.0859375	69644.578125	28854.650390625	43200.52734375	36644.9453125	55266.1171875	34924.4921875	149935.59375	3607.17724609375	8253.3017578125	48449.04296875	34245.359375	12767.251953125	7962.82470703125	65007.078125	65569.453125	82463.1328125	83235.96875	55375.62890625	52953.65625	67778.25	58171.515625	71115.1953125	70874.21875	77446.6953125	89236.4921875	82552.5546875	60440.76171875	40984.16015625	61126.49609375	76481.8671875	77609.0859375	78496.53125	117231.671875	67658.890625	70056.6875	76106.09375	76167.4609375	73111.0703125	88136.3359375	78725.90625	68062.828125	58936.921875	71474.515625	100307.4765625	47810.42578125	86980.890625	54415.61328125	68497.546875	55395.921875	79477.796875	85467.6171875	47678.5625	55064.47265625	68242.109375	55965.5625	71258.3125	78940.546875	76518.8984375	75627.0390625	66174.8046875	59307.875	39884.421875	67985.0859375	74586.703125	76768.7421875	77434.7890625	110947.640625	74161.640625	68176.578125	71942.6015625	75997.6171875	53778.3203125	82261.8828125	74541.875	67175.25	58273.98046875	69210.1171875	87162.6328125	53132.14453125	83697.34375	53464.16015625
150	180	11618.7802734375	29016.2734375	50959.328125	57520.2578125	88596.3359375	88712.90625	23868.279296875	37244.25	52613.66015625	45125.35546875	18988.990234375	57351.20703125	36983.9453125	140414.828125	12129.78515625	27031.478515625	50850.16015625	58412.01953125	85501.3203125	83530.234375	28747.24609375	49396.30859375	43947.9375	59580.76953125	39101.75	165379.453125	3768.314453125	9095.818359375	53345.0078125	39397.7265625	10345.2685546875	8991.4921875	76087.0625	75346.46875	95917.34375	91784.3515625	63872.1796875	62872.49609375	77142.8359375	65822.0078125	77102.84375	82566.640625	87199.0078125	96965.3828125	96585.84375	70511.375	47245.5703125	72682.6171875	86413.3984375	90417.5625	91815.6171875	138561.90625	83209.9140625	85135.984375	88383.8671875	89145.296875	83630.7421875	102409.5234375	91429.5078125	82489.6640625	67371.6953125	81187.921875	109099.1796875	53076.6015625	88587.6796875	62515.640625	77161.8515625	63959.07421875	93868.671875	99101.7421875	54938.234375	66033.125	78731.0625	66155.7890625	86954.046875	93664.7578125	86705.71875	86603.2578125	77225.796875	72819.4296875	47156.9453125	77732.9921875	82351.6171875	87027.2734375	92189.640625	130310.1640625	87785.2734375	78961.0234375	85078.046875	88097.078125	60832.3359375	94369.765625	88459.7421875	82216.0390625	67564.453125	81377.984375	109717.40625	60881.23046875	101650.7578125	59598.73828125
180	240	12673.06640625	30692.328125	52936.73828125	61025.796875	91221.9296875	93002.8359375	26226.494140625	38977.640625	49648.44921875	46146.359375	16217.890625	56958.5078125	41472.1640625	151888.59375	13241.1826171875	27596.529296875	53802.94921875	61974.203125	92175.5703125	90047.6484375	29213.35546875	51667.5546875	42973.21875	61070.6875	41705.3515625	122125.484375	3618.597412109375	9240.1689453125	55879.2890625	40938.13671875	7746.90625	9289.880859375	80610.75	79970.890625	102464.0390625	98861.296875	59081.859375	65119.82421875	80345.6328125	69659.1328125	78212.7421875	87254.2578125	92674.9765625	102673.7421875	92513.4140625	74595.765625	51927.32421875	78060.53125	92000.90625	91031.3046875	93351.1953125	135103.859375	87515.1484375	83047.359375	91245.90625	89440.328125	86301.7421875	106321.0390625	94421.953125	88141.171875	70855.734375	85485.59375	119815.0625	56710.78125	93775.890625	63831.4375	82743.75	64700.74609375	97094.421875	94774.3828125	58752.3125	68995.375	84455.3203125	70041.0	86829.9765625	96459.046875	89834.2734375	88830.828125	82877.9609375	75503.1640625	48721.6015625	81304.5625	88808.765625	91567.71875	94791.375	137306.84375	94171.3515625	82378.5625	87190.984375	93772.734375	60782.08203125	100674.203125	91331.609375	88503.9375	71762.34375	86431.3046875	110327.390625	61401.89453125	99671.5078125	60342.23046875
240	300	13373.8310546875	30634.470703125	53149.265625	60722.0859375	88878.734375	91543.2578125	30410.076171875	39180.95703125	49507.609375	51031.1328125	14190.580078125	57621.66015625	41844.6875	99257.4921875	14176.87109375	28023.6796875	53240.59375	62575.8359375	88931.015625	89278.28125	32401.884765625	51820.546875	46085.06640625	66082.390625	43310.453125	91358.921875	3688.60595703125	9501.5830078125	53761.6015625	41711.5546875	5331.6689453125	9918.5546875	78054.265625	77072.8671875	98872.6015625	99408.2265625	61776.40234375	64236.90625	79664.28125	69746.1953125	76046.0625	83833.3671875	88374.8125	100192.9609375	92352.5	73333.921875	54115.16796875	80356.765625	87482.5625	89000.53125	90569.671875	123644.1875	84807.1484375	83091.8515625	91284.5546875	87661.1328125	79842.40625	104042.25	93284.5703125	88424.28125	71118.0078125	84601.9921875	112612.0546875	56174.34765625	92128.40625	63541.359375	79546.5	68191.8203125	93314.4765625	89692.8828125	55234.73046875	70395.140625	84504.0	67780.1171875	85384.8359375	93771.65625	86194.4609375	86217.6953125	79323.6328125	76142.1953125	49889.09375	83829.6875	84132.3046875	89257.9609375	92520.828125	126067.8984375	92832.0078125	78916.2421875	86841.2265625	90375.5859375	61230.34375	98345.0546875	90657.734375	87522.5078125	72017.9453125	84281.328125	109094.8046875	66097.8203125	98942.875	59795.40625
300	360	14258.720703125	30282.10546875	49767.453125	58044.05859375	82183.7578125	85772.0703125	30514.953125	36843.8046875	45481.66015625	48346.34375	10619.94921875	55136.01171875	42162.46875	84565.5078125	14433.796875	27605.09375	50728.875	60975.44921875	85019.3671875	80879.3203125	35445.4921875	47972.14453125	47566.7890625	69592.109375	40569.92578125	95160.515625	3332.460205078125	9445.2431640625	50848.140625	38774.23046875	2860.36669921875	9918.375	76573.8828125	72091.75	92145.921875	89505.453125	61311.20703125	60719.4296875	73537.6796875	64969.4609375	74650.65625	76757.9765625	82201.734375	86392.0625	86807.3125	68322.421875	52673.06640625	73048.0234375	81692.65625	79008.1953125	85314.9140625	116608.0703125	80693.0625	77559.328125	82925.3359375	80453.84375	76166.796875	96595.484375	86017.6640625	82250.40625	66577.6796875	77733.2578125	110520.5859375	58150.94140625	90805.8515625	60795.515625	75060.9609375	64373.07421875	87167.1953125	81872.3671875	56115.3671875	64945.08984375	79241.1640625	65915.390625	75194.953125	88530.9921875	79960.015625	82004.8125	75166.5859375	71650.2734375	45868.65625	77508.609375	76916.1015625	84039.328125	84005.71875	109210.1796875	87036.125	74098.3828125	81772.9453125	85331.9609375	61060.08984375	90660.046875	84247.359375	83018.4296875	66683.5	79311.4453125	101220.65625	61757.84765625	83697.1875	59244.8515625
360	480	14757.2353515625	28920.08203125	44704.01953125	54315.49609375	70398.7265625	74908.6171875	31356.60546875	34858.875	41932.328125	45206.15234375	7304.9921875	53208.0703125	39521.7578125	60135.05078125	15022.5556640625	26461.8671875	45743.45703125	55369.0546875	74780.5859375	70867.6328125	34397.7890625	43308.984375	44985.4921875	62626.0234375	39020.85546875	61095.0390625	2498.096923828125	9501.5087890625	43621.49609375	36131.05859375	1782.1859130859375	9831.791015625	64449.4453125	62716.8125	78364.109375	76557.78125	53740.203125	55258.69921875	64492.609375	58634.21484375	59934.28125	65908.796875	70091.9296875	77169.3515625	73717.2890625	60663.78515625	46252.58984375	65086.9375	70752.171875	71334.921875	71170.390625	91295.625	69713.21875	65229.73828125	72307.8984375	70074.5	66846.9609375	82972.546875	74621.5234375	72320.8046875	59830.3984375	67161.703125	93321.953125	55458.01953125	72235.921875	55786.4609375	65058.1171875	57497.875	75717.4921875	70497.4921875	50108.01171875	58038.7890625	68139.1640625	59433.82421875	67252.8984375	74273.53125	68956.6484375	69904.671875	66658.59375	62403.9140625	43368.796875	66892.484375	67697.890625	70849.5078125	73118.046875	91080.09375	75907.4296875	67142.3125	70453.75	72253.7109375	50753.875	78926.984375	73656.4921875	73495.9609375	59915.328125	68347.828125	88903.8203125	59879.94921875	67305.3515625	55072.57421875
480	600	15450.2333984375	27418.091796875	38216.5625	47383.6953125	57861.73828125	62457.671875	35271.59765625	32423.552734375	36614.21875	43474.859375	5016.3359375	50047.92578125	36703.3046875	26432.35546875	15453.806640625	25365.08984375	38781.00390625	50014.765625	62178.24609375	61443.375	33488.43359375	37481.125	42132.0546875	53303.8203125	36267.74609375	56358.375	2156.903564453125	9438.662109375	38373.34375	33078.58203125	103.30416870117188	9954.0703125	52954.734375	54350.390625	64808.8203125	61332.8359375	49715.515625	48448.57421875	53547.73046875	50032.01171875	48695.6328125	53648.7734375	60200.48828125	61751.8203125	62190.921875	51096.66796875	41886.625	55099.0234375	57385.078125	57451.14453125	59431.1953125	67817.390625	57313.09765625	54068.296875	59530.796875	59100.5859375	55987.38671875	68836.109375	61895.30859375	60853.30078125	50217.265625	56527.48828125	78292.5	48824.3359375	57783.37890625	51104.72265625	52921.0625	47578.74609375	62561.859375	58979.60546875	46535.81640625	50169.0390625	58182.37109375	51530.88671875	55674.859375	60636.0546875	58651.765625	56786.15234375	55763.2890625	53188.37109375	38497.16015625	56201.375	56153.04296875	57429.7578125	58831.703125	69326.4453125	62656.30859375	52901.0703125	59239.6953125	59193.8671875	45848.24609375	66236.2421875	61603.14453125	61945.921875	50612.11328125	56934.20703125	72204.6953125	51267.32421875	53559.734375	48826.8515625
600	900	16035.310546875	25114.03515625	29947.912109375	39266.53515625	42863.70703125	47245.11328125	34890.33984375	27795.341796875	28290.779296875	39032.16796875	1821.876220703125	36179.83984375	32009.93359375	13113.8349609375	16103.96875	23964.720703125	30984.5078125	40514.62890625	45309.30078125	44634.203125	33802.3828125	30484.146484375	37736.80078125	43976.6953125	33042.88671875	20010.01953125	1633.9490966796875	9749.5341796875	27183.37109375	29470.69921875	-1058.1214599609375	9978.953125	40773.91015625	41301.8046875	48509.9453125	47245.140625	39695.41015625	37322.33984375	39679.12109375	39152.81640625	38903.234375	39512.9296875	45528.09375	47225.46875	46616.68359375	40247.96875	34763.8359375	42898.7578125	44100.83984375	42291.1875	44434.390625	47469.34375	43491.4609375	41935.52734375	45061.57421875	43986.88671875	43391.71484375	51880.3125	47242.07421875	46716.66796875	40140.390625	42785.1015625	57307.59765625	41607.1953125	45086.015625	41471.7578125	41072.125	39793.18359375	46624.93359375	43807.18359375	39789.80859375	38873.53515625	43508.890625	40897.65234375	41222.5703125	45735.84375	44540.5078125	42517.60546875	43514.29296875	40146.484375	32202.689453125	43681.12890625	42535.65625	43037.4375	44331.27734375	47681.8359375	46673.140625	39580.15234375	44239.21875	44924.2578125	37213.59765625	49507.8203125	46803.58984375	47098.23828125	39405.16015625	43415.78125	56371.8515625	43933.29296875	41079.23046875	39543.1328125
900	1200	16666.912109375	23101.58203125	22067.6484375	30025.20703125	28210.958984375	31918.66015625	32786.25390625	23448.2109375	20939.205078125	31742.623046875	287.1855773925781	27148.234375	27291.099609375	7140.88916015625	16550.31640625	22391.109375	22895.44140625	31180.119140625	30448.033203125	30991.69140625	29818.2265625	21964.943359375	31229.0390625	32865.23046875	28631.328125	21963.841796875	1304.6893310546875	9894.2177734375	19235.791015625	25453.017578125	-1600.2908935546875	10179.61328125	29648.013671875	31743.751953125	35433.57421875	33968.39453125	32864.7265625	29690.146484375	28610.91796875	29318.52734375	29887.7578125	29113.412109375	33092.44140625	32780.87109375	34396.578125	29246.375	27253.033203125	32388.052734375	32165.814453125	32610.505859375	31816.76953125	32589.22265625	30728.826171875	29521.38671875	32674.169921875	32977.453125	31406.39453125	37240.984375	34400.3046875	34411.26171875	30098.84375	30440.546875	42379.171875	35672.609375	31686.52734375	33579.421875	29979.037109375	30845.927734375	33994.47265625	32532.708984375	32901.87890625	29763.982421875	31892.376953125	31513.662109375	32452.873046875	34200.0546875	33349.28125	32123.515625	32556.919921875	29662.25390625	26527.13671875	31338.298828125	30441.81640625	31993.822265625	32319.462890625	33952.48828125	33714.78515625	31883.337890625	31360.810546875	32483.392578125	28858.345703125	35782.53515625	34391.04296875	34405.3125	29986.10546875	30703.99609375	43113.86328125	34216.85546875	32115.29296875	31622.947265625
1200	1500	16896.51171875	20720.90625	17150.666015625	23726.8125	20133.025390625	23838.119140625	28252.64453125	19817.408203125	17590.919921875	24422.900390625	620.6035766601562	17398.74609375	24196.716796875	1350.3975830078125	16647.978515625	20465.701171875	17852.357421875	24652.041015625	20637.24609375	22546.966796875	27023.0625	17185.61328125	24556.953125	24232.10546875	25727.576171875	19140.537109375	1018.1703491210938	10023.4033203125	16559.49609375	22840.05859375	-1523.8052978515625	10318.0361328125	23331.451171875	24579.9453125	26818.17578125	27421.80078125	27502.900390625	24216.69140625	22084.921875	24020.974609375	23910.279296875	22260.603515625	27115.091796875	25448.595703125	26515.015625	23035.189453125	20466.69921875	25607.41015625	25382.455078125	25985.03515625	25929.33203125	25036.90234375	23773.951171875	23177.794921875	25370.23046875	24645.89453125	24657.173828125	28110.146484375	26727.736328125	26931.134765625	23196.869140625	24200.564453125	33993.93359375	29798.6875	26620.337890625	27217.953125	24042.60546875	24801.43359375	26430.537109375	25747.498046875	27943.427734375	23312.798828125	25048.18359375	25614.376953125	27011.873046875	27820.974609375	27765.828125	25986.5703125	26755.34765625	22835.873046875	20604.328125	25912.82421875	25363.806640625	27247.865234375	25607.615234375	25838.515625	25864.181640625	23999.083984375	24796.48046875	25937.080078125	21990.681640625	27726.38671875	26915.068359375	27292.833984375	23712.9609375	24364.388671875	33232.68359375	26992.404296875	23719.259765625	25581.521484375
1500	1800	16480.865234375	19115.609375	13689.8154296875	19565.56640625	15340.7998046875	18771.7109375	24660.6328125	17276.65625	13129.2783203125	18606.291015625	145.81544494628906	11367.6025390625	21566.294921875	-5784.890625	16297.181640625	18694.91015625	14387.865234375	20525.125	16683.041015625	17158.8359375	24555.0234375	14474.603515625	20116.4140625	13485.6845703125	21166.419921875	6971.48046875	703.1376953125	10118.447265625	12141.0498046875	19863.962890625	-1170.3819580078125	10004.470703125	19971.0234375	19299.34765625	21845.634765625	21858.359375	22667.724609375	21000.197265625	18467.57421875	19840.947265625	20239.86328125	18373.033203125	22990.837890625	21174.66796875	22565.6796875	19178.525390625	17694.96875	21547.1953125	20682.916015625	22069.05859375	21438.5390625	19793.77734375	20043.26171875	18601.08984375	20352.28515625	21457.474609375	20387.1171875	23281.048828125	22075.2109375	22336.939453125	19279.47265625	19634.71875	28582.140625	26166.53515625	23605.79296875	22877.4140625	19167.90234375	21115.703125	21883.18359375	23006.9296875	21191.546875	20125.97265625	20582.966796875	21138.837890625	23777.81640625	22978.083984375	22515.42578125	21561.716796875	22449.931640625	19132.2578125	16658.98828125	20226.6015625	21281.958984375	21212.212890625	21429.21484375	20797.6171875	20508.826171875	20873.19140625	19239.25390625	21001.244140625	20158.16796875	23038.931640625	22079.568359375	22563.3359375	19215.18359375	20000.642578125	27228.275390625	22560.759765625	22206.49609375	21882.822265625
1800	2100	15947.771484375	17081.634765625	11202.4365234375	16120.4111328125	12314.0009765625	14918.4453125	21417.349609375	14269.0234375	12243.8134765625	15821.67578125	227.190185546875	6004.09814453125	18110.0	-4956.50732421875	15673.494140625	17010.607421875	11745.7783203125	16343.9677734375	13116.6298828125	13812.5751953125	20521.16796875	11927.3466796875	17911.474609375	7617.87744140625	18467.2109375	13551.5615234375	219.59486389160156	10161.0146484375	10815.66015625	18107.056640625	-1094.264892578125	9593.88671875	17863.20703125	18437.4609375	18969.111328125	19599.216796875	19568.078125	18901.99609375	15494.779296875	17174.7265625	19170.568359375	16484.01171875	19358.70703125	18447.791015625	18761.91015625	16195.0009765625	15283.716796875	17613.5234375	18498.890625	18278.8203125	18617.642578125	18602.775390625	16110.9140625	16462.912109375	16947.818359375	17812.3515625	16512.46875	19446.337890625	18843.2421875	18535.140625	16222.232421875	16454.771484375	22504.525390625	22084.533203125	19907.099609375	19891.38671875	17411.865234375	18405.876953125	18811.646484375	18282.837890625	18039.291015625	17670.607421875	17869.646484375	18102.693359375	19982.30859375	19892.701171875	18919.96484375	19468.099609375	19646.9609375	15961.044921875	15453.0	17391.580078125	17753.498046875	17816.2421875	18735.5546875	18343.283203125	17408.232421875	16555.11328125	15989.4404296875	18016.30078125	16233.861328125	19165.61328125	18732.53515625	18482.634765625	16735.822265625	17111.203125	24162.61328125	19179.3203125	19662.43359375	18410.830078125
2100	2400	15289.630859375	15636.1337890625	9635.6328125	13553.630859375	10317.0732421875	11432.69921875	18126.43359375	12109.375	11028.9091796875	13407.0146484375	478.06427001953125	4374.59814453125	16165.4482421875	1032.0482177734375	15014.087890625	15723.3359375	10034.64453125	14108.3525390625	10815.11328125	11332.005859375	18536.42578125	10562.3359375	14673.46484375	6498.82275390625	16627.044921875	7025.74072265625	-92.0652847290039	10057.0966796875	9244.0078125	16199.921875	-1017.1787109375	9371.6533203125	15451.53125	14002.5087890625	15791.9970703125	16772.568359375	14938.0595703125	17178.7734375	13027.830078125	15604.673828125	18122.091796875	14147.890625	17831.3984375	16344.060546875	16665.064453125	14117.943359375	13348.083984375	15607.9130859375	16070.5126953125	15672.787109375	15640.1533203125	16088.662109375	14344.5537109375	15199.8984375	14579.2529296875	16877.064453125	15787.0244140625	16964.478515625	16378.96484375	16358.275390625	14078.033203125	14956.4677734375	18106.1015625	18525.630859375	18766.904296875	17459.33203125	14969.771484375	18231.3515625	16738.111328125	16007.224609375	17620.734375	16605.388671875	15151.5927734375	16211.228515625	16646.3125	18429.337890625	17485.119140625	18740.19140625	17488.255859375	14227.3759765625	12135.1640625	16635.0	17005.873046875	16473.013671875	16132.4755859375	17187.900390625	14634.0146484375	14588.41796875	14005.841796875	16170.4052734375	14878.3115234375	16958.98828125	16424.705078125	16434.888671875	14627.982421875	14880.8857421875	23323.634765625	16886.70703125	19291.912109375	16571.830078125
2400	2700	14676.8056640625	13997.623046875	8174.2744140625	11526.947265625	7946.4755859375	10680.603515625	15758.734375	10989.3427734375	9317.2822265625	11209.78125	899.3895263671875	672.5425415039062	13486.3818359375	-8797.2490234375	14229.728515625	14104.478515625	8728.765625	12085.087890625	8696.7060546875	9622.7265625	15585.927734375	9753.353515625	11534.0263671875	3654.31396484375	15002.0205078125	5627.02001953125	-70.16803741455078	9773.943359375	9405.3828125	14545.578125	-973.3938598632812	9120.7265625	13183.4560546875	15007.1376953125	13578.42578125	15126.01953125	14074.0185546875	15605.318359375	12060.19140625	14194.451171875	16273.7509765625	13123.513671875	15845.0751953125	14419.6748046875	16100.9375	12023.4326171875	12329.515625	14105.609375	14567.2685546875	14707.0263671875	14769.615234375	15076.45703125	12835.984375	13575.98046875	12722.4736328125	14461.166015625	14681.294921875	14856.84375	14466.0859375	15107.8056640625	12833.408203125	13016.751953125	16114.89453125	17128.896484375	17385.65625	15724.9375	13989.4951171875	12975.8134765625	14647.5908203125	14291.94921875	13281.84765625	15289.3369140625	13509.3310546875	15293.49609375	15587.1494140625	16606.0625	16174.173828125	16673.798828125	15519.6630859375	12930.8662109375	9830.240234375	13726.9111328125	14408.896484375	15289.919921875	14726.8486328125	14429.1298828125	13238.2578125	13735.8759765625	12898.046875	14996.0908203125	13864.986328125	15275.4462890625	14948.0185546875	14714.904296875	13177.4091796875	13662.1240234375	19558.455078125	14662.6923828125	16314.1455078125	15404.234375
