frame_start	frame_end	Left-AV	Left-CeM	Left-CL	Left-CM	Left-LD	Left-LGN	Left-LP	Left-L-Sg	Left-MDl	Left-MDm	Left-MGN	Left-MV(Re)	Left-Pf	Left-PuA	Left-PuI	Left-PuL	Left-PuM	Left-VA	Left-VAmc	Left-VLa	Left-VLp	Left-VM	Left-VPL	Right-AV	Right-CeM	Right-CL	Right-CM	Right-LD	Right-LGN	Right-LP	Right-L-Sg	Right-MDl	Right-MDm	Right-MGN	Right-MV(Re)	Right-Pf	Right-PuA	Right-PuI	Right-PuL	Right-PuM	Right-VA	Right-VAmc	Right-VLa	Right-VLp	Right-VM	Right-VPL
0	30	41.56849	84.39417	61.27626	23.45388	40.68625	13.30379	37.41891	56.81055	74.01991	75.67198	18.66952	46.20458	154.171	19.3421	21.1988	82.39545	27.28499	80.16902	59.46042	59.36462	55.09613	9.62147	85.54549	35.07288	64.27079	87.87561	40.83127	39.91226	24.33471	42.88886	48.83654	55.02007	79.41906	20.4557	80.02092	96.29029	56.25267	42.95285	60.38812	82.7513	44.929	42.72558	42.7234	36.35899	60.85056	46.97186
30	60	9676.91684	6485.5948	9118.01158	6879.30526	10356.82878	7971.26355	9604.56609	7779.69284	9105.25238	8799.58266	8595.65316	4751.79932	5203.30598	9621.51361	7711.47539	9848.25287	8425.52173	7129.06827	4945.32145	7797.62895	8402.49608	4597.21317	7023.57369	7989.04956	6812.78457	10334.0572	7420.85419	10997.0734	6983.66573	10669.75205	7528.16923	10288.25952	9553.19188	10311.30654	6443.55464	5975.47421	8506.20147	7238.74591	5744.9023	7182.08254	5881.22829	6711.5083	6843.8204	7496.01009	4396.53608	5438.97105
60	90	23309.98105	25028.16228	30854.16629	27450.53556	33544.03073	24362.50429	31668.66982	23206.44683	33634.20678	31194.51515	25829.63466	24795.5916	23022.74335	30129.35148	24002.52227	25769.475	23645.36649	19669.58904	24950.39062	25095.9002	27430.60207	19717.98884	24967.4613	25061.82679	23906.81798	31596.84654	23624.19358	28972.60208	21856.93254	28117.40322	21149.01855	33237.37325	30983.80804	25423.042	24109.21254	23242.82784	27420.71244	23751.68446	23719.4355	24075.02729	18797.24347	23144.10327	22223.78085	25160.26728	16106.56943	20375.33814
90	120	39480.4184	38304.91494	48361.149	44962.98632	48450.37135	37492.6801	46114.89531	39686.94922	54500.68928	51545.51575	40159.55907	34032.72148	39876.87668	51425.44873	40340.47445	46247.16733	40532.47743	31588.62009	33780.58691	37483.40506	42205.05722	25545.39314	39917.89524	38404.51905	37361.5456	49118.11049	38797.71227	43958.35651	30951.91216	44426.96245	34109.6527	54527.69538	50358.97498	39589.59443	33831.51776	41436.33177	46345.35247	32993.55448	37853.11887	37562.02081	32049.3668	33881.29492	35739.60581	40395.77315	29965.05156	32379.8697
120	150	54557.58804	49121.11138	64317.3298	58873.40945	64338.74245	48565.27017	61315.60803	50143.66515	70439.40202	62064.6322	52913.9491	48374.21172	45434.1023	65586.73135	51297.564	58015.22588	50434.58311	44509.87872	44319.1888	54773.84125	60296.95537	36533.49163	55698.7624	51904.99228	50428.13186	64943.50949	53035.87134	56370.9888	41506.99278	57630.57651	43446.45064	72016.11119	64747.14569	46177.42618	52749.30433	47448.1872	61940.29061	44205.5857	48703.09674	50153.14947	41983.48541	48960.57666	54192.2346	56591.12977	35281.58184	44575.90268
150	180	51078.08151	52569.24062	63434.4654	66824.26884	60223.19401	47485.08473	60168.39549	56173.09266	77043.09144	66865.33728	56635.44453	48730.89844	53200.09159	71123.9005	53087.28303	56498.97274	54176.51066	46412.186	45688.78776	55041.45899	62855.22789	41736.4442	58732.63308	52550.9007	52921.13682	72962.22712	60792.5395	62842.28411	43652.08667	65417.02822	50010.12713	76079.06271	68930.01973	49564.239	48770.40554	58398.25823	70442.10437	46731.11193	54245.86868	53917.75805	46193.09274	51232.04688	52877.16817	58223.74641	35785.87813	45157.33335
180	240	52851.48811	53832.74147	68296.9096	63590.9268	64772.08021	50521.12961	64241.8799	49866.48329	77195.12108	67365.06937	53249.14408	52949.20898	53359.88224	73166.67406	53598.39279	62827.94088	54326.85999	43764.92136	50105.45703	56203.32989	64619.38401	39470.04185	58120.43774	55537.64019	53342.65495	68262.56027	59268.7589	58451.07786	45562.97042	64424.80173	46340.68608	74714.91413	68640.83922	50369.85289	50216.57635	53172.40986	70499.50828	48290.55751	54800.49009	53485.54314	48121.76308	50130.97412	54118.82232	58652.65877	40008.50742	48480.994
240	300	57174.52937	55170.92583	68744.4654	62217.7425	59072.78438	50968.39321	60838.00025	52113.74262	73671.95713	65400.06645	51478.48277	54232.69922	52555.2796	66653.95469	52232.97629	60360.52726	50412.55655	49611.10084	52724.89844	57275.24542	62515.52833	40067.93973	56038.75591	51968.91129	51362.72035	65873.36105	58438.42425	56837.22188	40982.32419	60028.77513	42587.20348	70784.58435	65983.10125	46598.22258	46345.82209	54507.8383	65950.47611	44961.58549	50735.21044	50696.9298	45656.73492	47123.13916	53031.32456	58006.39949	37152.09219	47910.95714
300	360	48276.00365	53317.64163	61073.25614	63602.68223	55169.87214	44067.99062	56062.85376	47643.34245	69107.00311	61529.69313	49001.06546	47462.10117	48568.35072	66804.82194	48473.24384	57934.96068	50846.06012	45616.54263	50212.11003	54385.93645	59074.47773	37172.6356	53457.08114	52704.31255	51677.24549	60181.77511	58108.4781	50226.12865	40762.26238	56419.80486	45382.76136	68361.91787	61624.63466	50151.89614	45939.48402	53713.74733	63824.05944	46032.92722	50727.17628	48810.61933	48352.98122	48314.53662	53019.17565	55173.87771	36208.65547	46626.81547
360	480	47476.25139	50926.25576	56066.25781	57823.55481	47668.60182	43002.55768	48664.49283	44071.36155	63236.79455	55613.48446	46795.34153	45192.59648	47182.1649	60521.68594	47448.32098	53919.10031	46368.47574	45902.07101	46689.0332	53045.24639	56001.33039	35695.10156	51890.2744	44536.29775	49551.36949	53567.26283	55347.75439	44568.19766	39384.32989	49507.60125	42474.43679	61196.68422	55804.43868	47113.88579	48483.91797	49485.6893	58591.84738	43485.40156	48214.24826	45314.7419	43947.81954	49812.14453	50171.69979	52241.92523	36860.59297	45643.12505
480	600	42821.43634	48886.4507	50076.77232	50773.53	39323.27552	41917.00216	41893.92976	38497.42535	55407.10761	49381.17637	43957.10905	43553.81172	42407.34557	52409.11346	44063.06151	47453.72784	40165.6075	41180.58868	45900.3099	47080.74354	49032.66467	34060.41518	46869.4208	41005.39681	46159.90685	46905.84375	49500.20727	33936.94102	36010.10226	41483.19903	36650.40838	53970.01987	49656.23094	40134.94664	40901.39205	45138.78448	52120.68987	39001.70181	43084.93401	39534.72756	40966.14996	42651.23877	45876.61512	48197.88476	32981.44707	42776.44708
600	900	34148.7829	39194.65268	38319.0625	43207.55347	32484.22174	35051.49389	33493.13606	32160.59972	43148.03175	38320.21214	37779.1346	36064.86875	36142.09742	42688.74637	35863.50913	38978.42672	32756.15822	36476.77124	37945.99674	40021.2599	40910.33728	30581.66853	39904.55231	32060.76981	37956.53148	36304.15848	42241.38907	30266.23073	30153.40763	34024.13394	30973.51367	42581.16036	38428.43292	34253.47135	36307.1282	37451.81258	42581.07326	33522.82537	35369.22705	32826.40338	36225.53117	38418.34424	39647.99301	40342.20363	28190.99453	36942.63669
900	1200	27283.34145	32516.86054	28328.92132	35003.73652	23528.33424	29024.09343	24327.20602	25219.34711	32485.30119	28873.59084	30443.33606	30619.30449	28509.62635	31555.07878	28569.42996	29673.172	25212.92137	30030.7525	32665.86198	32465.78487	32721.02443	26418.399	32814.45835	27125.9981	32158.17668	27321.76981	31604.68453	23312.44648	27439.6596	25438.1676	23742.5396	30991.69143	28616.6401	29328.05564	30958.07919	27978.22183	30232.46784	27832.67449	27004.93291	24662.37158	30867.72513	32565.50391	32107.73198	31453.70705	24064.09766	29864.8989
1200	1500	23039.20843	28538.79692	24239.74219	29093.36649	20067.27344	26399.28184	19619.34862	20657.41786	26425.41966	23654.67778	25626.14387	27472.59082	25027.96838	24341.47318	24104.08541	24951.05385	20720.63709	26065.1587	30208.4821	29100.33594	27610.58391	25153.43638	27489.01431	23001.45089	26880.35627	21414.11412	27374.53701	17516.08132	25366.75086	19160.00362	21114.64933	23788.50896	22713.84261	26486.06872	24877.22816	25121.74264	24865.78043	23804.29239	23660.28534	20786.72816	26855.60605	26949.26587	27290.52795	25739.56094	25307.48223	27115.70827
1500	1800	20554.80263	23562.30917	19748.4534	23615.26462	17951.17904	24288.64752	17491.46858	19629.53288	21647.20509	19541.70735	22075.13553	22695.35293	21517.16864	20152.7172	21434.09369	21955.82288	18250.07197	24047.65563	23593.92643	23371.98892	23426.63386	22700.90513	23967.26978	19822.48433	24060.6739	18758.63546	22038.8736	16779.79505	23563.82402	17556.03033	20095.88956	21206.81452	19250.46328	23900.38134	22806.35618	19496.91955	21106.05547	21717.61979	20052.5424	18290.39709	23481.93605	25088.05493	24064.61934	23442.08647	21471.21367	23271.82348
1800	2100	19947.80318	20440.04361	18639.44434	20578.00412	16583.30957	22376.91887	15284.11439	17181.71577	19307.96282	17267.87501	21567.94034	17987.89707	18645.10136	18397.56621	19479.73622	18413.75637	16216.86107	21681.15517	19411.03776	21874.88593	21025.48567	21277.09794	21690.63801	17848.27595	20771.93642	16126.31543	20887.16248	15491.54674	21830.67935	15968.32354	18389.38432	17728.41516	16896.59934	22451.24572	18712.80558	19462.05315	17405.54132	20291.91678	18604.56376	16540.23951	21146.31174	21119.30444	21419.6443	20044.88635	20376.85527	20782.81874
2100	2400	17047.28797	18894.7299	17187.31501	19071.69011	13361.3959	20673.46965	13682.57877	14514.57834	17758.0397	15616.26196	18768.32367	18084.63965	17923.26467	16260.77399	17374.13944	17302.22034	14834.94033	19834.56045	19780.95182	20426.68757	18977.00019	19782.69085	19044.20929	15644.67709	16848.18935	14763.79213	17335.5613	13730.66576	19515.71205	13748.52428	15196.52148	15575.28252	14289.40188	17807.13406	15326.8813	15742.91175	15082.04839	17232.45542	16353.74708	14792.72326	18600.70226	17137.91467	18806.87468	18480.55097	21156.98125	18420.51018
2400	2700	13662.49297	16886.8104	13182.34445	15650.81791	12142.39661	18538.00744	12182.38087	12983.64307	14351.59339	13537.83017	16917.32491	16648.34082	17001.39386	14784.56864	15740.33013	15949.08232	13584.69006	17751.4005	17195.22363	17219.51735	16300.52151	18840.93722	17983.96921	14753.44584	16412.02803	13583.02734	15466.94579	13030.59733	19054.23116	12813.52741	14686.94416	13176.02375	13153.73898	16175.83319	15542.54279	14540.33703	14236.19936	16741.87274	14452.14393	13506.99809	16804.54854	16688.97998	16841.07294	16124.56876	20182.03574	17468.0208
2700	3000	11761.50725	14332.71991	12522.18652	14124.81652	11186.86413	17325.1975	11127.0356	11234.53727	12948.62106	12193.92536	14595.8061	13192.97988	14131.09154	13029.61078	14233.72834	12896.60041	12223.31216	14616.00697	14774.95345	15351.39326	15302.51265	17483.36691	15787.58837	12465.66956	14378.98291	10704.11105	12829.28477	10568.14316	16046.76339	10116.06136	12851.90918	12591.79249	11675.46866	14762.28	12776.99751	12074.67216	12943.63969	13595.93427	14396.34214	13098.10912	15615.75224	14277.82385	15983.48964	14076.56012	17103.99648	15437.50832
3000	3300	11888.94524	14259.50712	11742.42299	13364.13512	9773.93151	14339.70857	9446.26226	11636.2985	11620.43369	11035.52923	12591.26996	13860.66826	13850.4684	10772.56575	12224.61362	12806.10522	10820.25617	15319.90664	15409.06413	14439.65048	13730.02025	16922.10965	13838.43534	11838.94428	11748.52042	11384.25112	13326.90457	9297.17624	15021.75803	9598.04324	10672.95108	10932.41839	10714.56401	10794.40964	12572.62287	11778.49758	11456.64752	12031.3747	13395.41766	10932.06461	12971.41724	12671.08215	13403.25645	13322.76861	17401.01797	14683.03162
3300	3600	11310.4794	13167.85419	10275.2507	12245.0845	9148.07604	15884.2774	9514.02097	8719.31806	10973.30425	10278.13537	12826.54493	14308.88584	10311.42728	11453.34688	11549.56169	11196.9986	10640.10295	12924.68308	13913.77507	12445.08312	11904.71704	13311.58998	13585.88344	11508.946	12649.28756	10805.96373	11443.07057	9918.83226	12669.05833	9846.66475	9043.02677	10474.41831	10289.92133	11817.2004	12266.44691	10206.80427	10430.26045	11216.70216	11028.13275	10130.40375	13630.10042	12153.47266	13271.8106	11733.95526	15314.74531	12340.1917
3600	3900	11355.32113	10914.58707	11286.8653	11121.13774	10017.97337	14064.53794	10022.5713	9293.6984	10630.07418	9981.88556	10566.55298	10931.87207	11344.48788	9841.19633	11261.9301	11051.77585	9938.58469	11481.62045	11891.61003	12339.77996	12071.38616	14123.97991	12606.08968	8840.25461	9601.15353	9127.42132	10284.4479	9122.19818	14462.56325	10334.40756	10338.57227	9907.90642	9551.22003	10750.13222	8834.29013	10392.71888	10107.30469	11927.06163	10079.81817	10142.92187	11931.08325	9572.98425	12005.03617	11223.23519	15490.74238	11805.65762
3900	4200	9594.55468	11732.50974	9978.22412	10285.88421	8496.47653	12890.61873	8032.34941	8759.52059	9469.95851	9534.94081	11370.61097	13100.25869	12099.79938	9495.53205	11716.53275	10838.10944	10263.81119	11271.21559	12128.3763	11195.87822	10930.6391	14698.01339	12539.0178	8865.7515	9650.16553	9323.17118	10817.41732	8510.07881	11161.97821	9438.80499	8494.06783	9529.452	9589.30365	10341.06165	10897.09366	9558.06637	10189.11547	9779.13936	8459.53281	9405.67423	10918.60431	9366.83838	10541.17972	10135.9491	15369.09922	11501.96442
4200	4500	10014.01208	9468.72704	8667.20996	9188.23045	8017.15241	11779.78724	8602.74958	9148.29313	8423.75617	7881.13335	9335.53635	9901.30127	9470.67034	8342.96857	9642.26193	8929.70274	8900.25171	11109.54119	10587.29036	11303.5559	10641.58922	14814.57464	11111.68297	10639.67843	9238.35895	9288.30155	9878.4819	7012.19368	11665.46298	8083.61942	8099.03192	9956.11952	8353.16252	9423.39644	9123.84379	8373.42423	8323.5904	9641.39612	9136.45876	8589.85068	10728.57061	9218.2843	11753.77973	10866.14294	13466.30479	10530.06029
4500	4800	8204.58782	9322.01794	8608.77825	9411.30581	6694.40641	13821.91141	6125.28991	8025.51042	8476.26462	8172.86267	9591.14415	8111.37988	9798.75732	7732.69797	9196.05474	9310.80241	8492.33196	10286.14495	8985.58423	10320.83886	9745.03673	10989.37277	10117.78542	7008.04125	9108.76111	7451.84626	8155.70347	6745.44303	12494.08553	7331.33227	8730.35032	8735.8317	7992.87069	8913.42566	8616.63685	7143.23661	8248.15702	10425.1859	10313.98837	9196.89676	8435.82732	9594.81519	10887.30406	9844.61987	13594.93662	9867.22869
4800	5100	8746.20185	9543.56019	8263.09459	7425.72773	7350.39779	13187.90203	7100.16337	7565.8447	7086.41085	6952.87481	10570.3469	10007.12441	8724.30017	7117.67435	10412.70817	8432.34013	8388.21406	10797.88308	10861.48503	10953.74486	10203.33164	15191.66839	10193.58129	6834.78789	8272.63791	6900.34312	7984.39626	6521.86286	9498.15028	7317.77177	7825.38889	6882.21203	6613.59985	7244.13085	9810.50018	6384.79612	8581.33424	8996.313	8712.42088	8650.79457	8209.35831	9755.99866	9177.89374	9281.1577	12643.05303	9373.59703
5100	5400	6874.27698	6727.73374	7510.79869	7964.85234	5803.29831	10561.0782	5452.98002	6922.8744	7277.57934	6405.40933	7157.35615	8961.98652	7520.71447	8026.74021	8533.64777	9234.07294	8112.74332	7812.41971	8756.72868	9140.57056	8329.54286	13943.73284	9595.7062	7893.34698	8408.03556	6970.4617	8848.27991	6466.17272	10201.71655	7568.36232	6023.0973	7342.00148	6827.15141	8839.86052	7062.12611	6950.05379	7761.21253	8889.13273	8184.65083	7586.50311	9697.99836	8311.40857	8829.42387	8629.61942	12917.27598	9829.84429
