frame_start	frame_end	parasubiculum	HATA	fimbria	hippocampal_fissure	HP_tail	presubiculum-head	presubiculum-body	subiculum-head	subiculum-body	CA1-head	CA1-body	CA3-head	CA3-body	CA4-head	CA4-body	GC-ML-DG-head	GC-ML-DG-body	molecular_layer_HP-head	molecular_layer_HP-body	Lateral-nucleus	Basal-nucleus	Central-nucleus	Medial-nucleus	Cortical-nucleus	Accessory-Basal-nucleus	Corticoamygdaloid-transitio	Anterior-amygdaloid-area-AAA	Paralaminar-nucleus
0	30	227.39113	125.02327	102.3306	76.72401	34.7289	121.24816	69.29379	112.34651	123.40908	96.23829	174.70604	110.34868	110.96083	62.34055	139.45338	76.85114	145.57223	96.44021	137.66056	135.35576	182.00683	293.74355	107.7801	172.80686	199.84948	197.86496	221.92064	160.84175
30	60	6379.73425	3067.95801	6930.43511	6680.54343	4846.93141	6559.32099	7268.08762	4914.97006	6303.03309	4225.66338	4325.453	5557.88461	5879.33491	5006.41342	6760.97989	5047.4823	6437.61334	4743.61409	6124.11225	3940.97136	4649.25831	4791.95952	4013.94961	4309.43125	4494.02269	5075.53332	5855.94721	4238.76497
60	90	13277.37114	12869.95625	15037.69985	14000.62829	14146.8178	12726.99854	14969.26449	12742.45698	14272.23744	12775.0648	11937.27271	14121.2288	13973.18041	14279.40386	15018.60975	13601.24171	14627.77303	13419.87685	14276.21184	10013.07983	14347.46772	15372.73659	14292.33353	12580.19582	13828.22991	13069.01662	16845.12946	14485.13389
90	120	22407.99081	17303.79764	26160.19028	23085.21543	24501.93864	22653.54295	21428.17963	22895.71662	23347.43078	22182.97421	19615.16125	25845.2747	23775.29619	24658.39834	22795.64877	23082.28595	22484.21633	23651.93256	21944.61279	21357.99985	24073.72785	20408.84893	16095.82362	15217.73028	20758.28158	18842.64839	23669.90709	23401.05929
120	150	29415.32934	24544.78197	37832.726	33805.90984	31502.07183	32465.72445	31848.57209	31016.34733	31700.11918	30839.46571	30375.64638	36224.69497	36667.58008	35768.35631	37157.4099	33922.35855	35932.43746	33949.68584	34611.92991	28614.54716	28585.03099	29082.352	25906.50496	27502.44838	28888.19958	26554.5971	30314.63351	27016.1254
150	180	30040.27478	31376.73918	38334.47218	35908.27161	37104.29807	33267.4627	33398.91082	33299.96219	36250.33333	33623.75492	34631.34209	40799.88022	38476.9775	38025.34965	39919.40477	35811.29116	39045.56431	35933.90774	37962.40064	28904.19607	33351.81266	34873.67064	28301.75811	30663.27316	35570.84688	31790.89732	31686.67104	31433.89999
180	240	28986.08611	30081.9259	37029.77344	35672.86866	35657.5414	33853.26564	32424.64126	34256.95222	35738.41489	34792.87699	33803.38606	36665.79302	37980.28121	37472.52503	38251.84486	35781.39588	37275.891	36515.13075	36360.59242	33835.74302	34114.15107	38506.26148	31393.39994	32596.27679	35103.14495	30293.18532	32922.12919	31062.19882
240	300	28780.18053	32835.13765	34353.06194	33312.82481	35223.64688	30739.06072	30501.05698	30363.5719	34511.25426	33839.00615	31957.12552	37769.50875	33877.99654	37901.46296	35227.56477	35849.52563	34733.29158	34984.75324	33845.66509	32588.8793	35401.7961	33467.46775	27470.66121	30716.25288	36102.43941	31136.40393	35680.76046	30111.45343
300	360	28867.65265	28296.74832	31107.84538	32631.38922	32548.74355	33568.12678	27872.56359	33829.15552	31872.56789	33222.48016	30898.92398	34543.28899	30270.88869	35969.63128	32909.14179	34242.80461	32330.4439	35059.10486	31437.4137	31824.99363	31602.52728	32477.66889	29602.88116	29851.57338	32452.76958	27685.96737	31682.63602	27769.54097
360	480	25829.03068	25086.01995	29430.7722	30278.49601	30252.67122	29608.84408	26531.93053	30116.14869	31293.45448	29933.75282	28046.87592	30851.22993	28551.72236	32496.5037	30504.65997	31210.66216	30315.24405	31397.63604	29531.92727	31765.1546	33072.88982	31955.0008	26340.56716	27487.60965	32219.8326	26653.81004	29886.16511	28381.98227
480	600	23994.87793	24235.46887	25826.56124	26152.43891	24725.98473	26394.58672	24092.08994	26948.23408	27446.79207	27200.98923	25134.84455	26605.24649	24612.62727	28330.86287	26600.86857	27148.15806	26388.37258	27900.27547	25827.34377	28696.93257	28731.2117	26896.30951	24566.71725	25233.96642	27818.33378	24191.27246	25639.21324	28266.94872
600	900	18680.82885	20039.34979	21382.86515	22653.7135	21094.89075	21716.54438	20237.46654	23031.61713	23045.69891	22032.92418	22745.46274	21631.45961	21444.25236	23825.19021	22643.77894	22965.04083	22630.61534	22816.74177	22385.07205	23996.0176	23977.70588	23832.77918	22417.40655	23780.28051	24238.47566	21024.26232	23501.53439	20830.49499
900	1200	15506.43748	16316.35539	17383.63219	18270.20063	17691.18018	18138.74266	16149.76225	18988.03982	18434.58981	17673.56722	17507.5706	17240.76772	16908.19938	19137.55619	17437.33822	18551.96801	17359.85178	18481.93246	17199.78271	19778.24115	18897.49757	18832.79167	18104.53486	19040.69485	18351.49555	16372.70041	18577.98765	16987.07955
1200	1500	12335.72985	14141.25587	13639.74251	14245.4088	14000.34454	14597.41192	13560.7929	15968.43982	15563.63935	14436.86745	15162.38766	14498.5598	13964.79775	14945.00539	14147.03794	14597.83441	14354.78725	15120.42695	14593.15173	17848.90814	15457.26829	15357.77202	15630.87207	15324.42513	14976.6062	14265.66597	15991.80856	13704.253
1500	1800	12061.45375	12366.10922	13179.58209	12752.97677	12251.8039	13186.7983	11610.95645	13618.06127	12926.18935	12469.15811	12964.99672	12644.39457	13512.41084	12814.97773	12621.81726	12724.61635	12593.81848	12914.57948	12652.1031	14365.41525	13372.29004	15030.94677	15020.4073	15114.24186	13877.69804	12560.93321	13444.70414	11728.60581
1800	2100	9041.29432	10907.34484	11101.86245	10177.7196	9968.22156	10076.72515	10642.03407	11244.17786	10835.93767	10731.25541	10904.66857	11023.2189	11383.55913	10269.34889	10341.90719	10401.53948	10362.71889	10677.71346	10638.51189	12628.36864	11050.35202	11965.66061	13119.99564	11889.72549	11002.15978	10112.13665	11479.64614	10015.30315
2100	2400	8857.78415	10566.03732	10258.01962	9398.21737	9668.45896	8937.56691	9578.55082	9749.76546	10761.03305	9653.69569	10446.96635	9578.03444	10473.54992	8778.45556	10341.42785	8988.7082	10347.80197	9373.8611	10241.94133	11816.45845	10110.55804	10783.98493	11124.82978	10904.32352	10431.49004	10096.92831	10034.35784	9228.65922
2400	2700	7459.908	10501.01463	8533.71624	7846.36028	8678.74407	7614.04905	7925.63763	8357.29492	8893.43256	8838.58967	9548.15242	9313.3602	9637.49071	7973.98037	8466.99561	8348.54334	8527.41283	8291.15326	8790.66902	9510.4515	8426.4035	9916.40675	10114.5181	9374.78148	9409.55833	8819.53526	7901.17144	7692.09221
2700	3000	6304.55971	8018.36787	8089.53808	7410.06272	7752.61159	7196.97855	7449.80494	7670.91152	7421.88816	7808.79301	8815.81679	8168.29034	9512.82269	7397.01674	7873.04093	7465.45139	7887.24387	7644.44815	8272.14039	8750.48331	8087.40457	10175.99739	9214.82722	8636.68427	8612.74725	7355.36244	8149.1543	6215.62367
3000	3300	5062.67844	7080.47055	7610.3755	6224.13469	7720.45482	5541.5193	6171.90034	7572.48267	6635.88553	6625.20328	7048.2708	7486.27768	8422.73189	6644.66317	7005.1117	6543.63089	6905.65322	6720.08558	6969.71715	8430.75739	7335.85557	7890.95336	7991.53215	7934.72015	7335.7091	7103.54469	7426.38536	6700.57173
3300	3600	5710.09575	7609.24983	6855.48805	5859.16489	6589.06196	5243.77045	6207.61184	6235.78055	6599.74084	6267.86248	7224.06928	6990.45694	7634.71237	5603.62583	6477.06825	5826.21797	6546.13705	5896.45719	6822.54475	8114.64108	6895.09316	7982.36498	8133.91947	7414.9073	7168.28165	6469.02013	7341.03636	5653.31858
3600	3900	5722.72304	6346.29273	6557.2857	5202.80079	5429.61247	4839.90097	5052.30453	5882.98478	5579.76158	5940.01678	7267.28009	6642.37723	7821.23502	5588.50518	6670.42775	5734.6498	6567.75574	5776.23088	6631.02666	6454.74572	6511.23425	7689.93627	6780.98896	6873.34452	6749.26062	5981.79113	6890.07584	5351.98796
3900	4200	5392.23609	5383.03718	6733.05962	6003.31858	6586.8457	5686.83378	5804.68081	5591.0577	6672.30984	6250.4259	7400.58346	6234.55673	6839.88362	6317.19251	6330.90778	6462.66376	6489.66067	6165.69306	6655.42405	7250.41434	6290.06537	6529.87722	7176.117	6450.29871	5773.11165	5548.2086	8702.76259	5209.13085
4200	4500	4359.04793	7256.55712	6530.01284	4796.54292	5762.80689	4168.85165	4990.05782	5057.82534	6113.87763	5249.40771	6050.55284	5724.05982	6610.58715	4552.48683	6199.84426	5082.75417	6200.24311	4728.5969	6042.63913	5798.05971	5277.88225	7008.58475	7055.61103	6591.54743	6586.46658	5852.19374	6477.66054	4115.84608
4500	4800	3503.02232	5164.76631	6568.62403	4863.7671	4898.23811	3676.29068	5497.29507	4397.04572	4919.32724	5406.87569	6059.85258	5683.64762	6499.75988	5001.34012	5746.04816	5123.23574	5616.27255	4983.59418	5745.75066	6840.03413	4413.49016	6382.30838	6025.97996	5437.34866	4913.30013	3993.36404	5367.04224	4050.81098
4800	5100	4518.57955	6088.90552	4959.55075	4456.78813	4032.55973	4606.24879	4258.01896	4267.55295	4624.35347	4690.90914	5476.88927	5618.16384	5743.58701	4160.6411	4351.8526	4877.83515	4480.66051	4575.09332	4813.31911	5204.45828	3691.08864	6205.95763	5835.86234	6153.93225	5242.78657	5067.36555	4028.01055	3944.18129
5100	5400	4584.12503	5134.0265	5216.21257	4187.47177	3527.83658	3771.70114	4904.76666	3930.39935	5095.38241	4449.68715	5186.33739	4424.95927	5063.24263	3222.66419	4975.45201	3382.78802	4902.10997	3904.81746	4905.74481	4424.67533	4349.95737	4622.01453	4943.28431	4915.44317	4716.67119	5278.46413	4024.42676	4643.68668
