frame_start	frame_end	Left-Cerebral-White-Matter	Left-Cerebellum-White-Matter	Left-Cerebellum-Cortex	Left-Thalamus	Left-Caudate	Left-Putamen	Left-Pallidum	Brain-Stem	Left-Hippocampus	Left-Amygdala	CSF	Left-Accumbens-area	Left-VentralDC	Left-choroid-plexus	Right-Cerebral-White-Matter	Right-Cerebellum-White-Matter	Right-Cerebellum-Cortex	Right-Thalamus	Right-Caudate	Right-Putamen	Right-Pallidum	Right-Hippocampus	Right-Amygdala	Right-Accumbens-area	Right-VentralDC	Right-choroid-plexus	AirCavity	Skull	Vermis	Pons	CSF-ExtraCerebral	Head-ExtraCerebral	ctx-lh-bankssts	ctx-lh-caudalanteriorcingulate	ctx-lh-caudalmiddlefrontal	ctx-lh-cuneus	ctx-lh-entorhinal	ctx-lh-fusiform	ctx-lh-inferiorparietal	ctx-lh-inferiortemporal	ctx-lh-isthmuscingulate	ctx-lh-lateraloccipital	ctx-lh-lateralorbitofrontal	ctx-lh-lingual	ctx-lh-medialorbitofrontal	ctx-lh-middletemporal	ctx-lh-parahippocampal	ctx-lh-paracentral	ctx-lh-parsopercularis	ctx-lh-parsorbitalis	ctx-lh-parstriangularis	ctx-lh-pericalcarine	ctx-lh-postcentral	ctx-lh-posteriorcingulate	ctx-lh-precentral	ctx-lh-precuneus	ctx-lh-rostralanteriorcingulate	ctx-lh-rostralmiddlefrontal	ctx-lh-superiorfrontal	ctx-lh-superiorparietal	ctx-lh-superiortemporal	ctx-lh-supramarginal	ctx-lh-frontalpole	ctx-lh-temporalpole	ctx-lh-transversetemporal	ctx-lh-insula	ctx-rh-bankssts	ctx-rh-caudalanteriorcingulate	ctx-rh-caudalmiddlefrontal	ctx-rh-cuneus	ctx-rh-entorhinal	ctx-rh-fusiform	ctx-rh-inferiorparietal	ctx-rh-inferiortemporal	ctx-rh-isthmuscingulate	ctx-rh-lateraloccipital	ctx-rh-lateralorbitofrontal	ctx-rh-lingual	ctx-rh-medialorbitofrontal	ctx-rh-middletemporal	ctx-rh-parahippocampal	ctx-rh-paracentral	ctx-rh-parsopercularis	ctx-rh-parsorbitalis	ctx-rh-parstriangularis	ctx-rh-pericalcarine	ctx-rh-postcentral	ctx-rh-posteriorcingulate	ctx-rh-precentral	ctx-rh-precuneus	ctx-rh-rostralanteriorcingulate	ctx-rh-rostralmiddlefrontal	ctx-rh-superiorfrontal	ctx-rh-superiorparietal	ctx-rh-superiortemporal	ctx-rh-supramarginal	ctx-rh-frontalpole	ctx-rh-temporalpole	ctx-rh-transversetemporal	ctx-rh-insula
0	30	35.179534912109375	41.146278381347656	6.247351169586182	152.2589111328125	165.57794189453125	278.27996826171875	50.19658660888672	112.31201934814453	85.52281951904297	352.5068359375	20.268455505371094	94.8859634399414	152.08387756347656	-70.63593292236328	48.84623336791992	10.93648624420166	27.052379608154297	106.83895111083984	81.77264404296875	148.6677703857422	116.3546142578125	122.39840698242188	149.997802734375	467.2789611816406	161.82830810546875	515.380615234375	15.742863655090332	20.671281814575195	32.86534881591797	-17.524404525756836	174.38465881347656	23.209489822387695	155.12307739257812	226.32469177246094	70.45318603515625	202.5019073486328	301.7523498535156	198.52891540527344	93.17984771728516	11.584360122680664	181.0712127685547	54.64091873168945	29.689512252807617	273.9059143066406	323.4738464355469	74.93080139160156	48.123191833496094	119.15116882324219	290.836181640625	119.53743743896484	19.11125946044922	282.88995361328125	124.03592681884766	44.870731353759766	149.473388671875	220.8152618408203	436.5249938964844	143.7408447265625	140.12950134277344	112.84649658203125	257.402099609375	228.7132110595703	77.7380599975586	-20.031526565551758	462.7047424316406	460.77545166015625	135.71844482421875	7.880890369415283	122.75068664550781	483.3538513183594	308.66546630859375	235.57577514648438	112.59260559082031	13.68916130065918	13.450868606567383	5.475498199462891	360.97711181640625	180.32730102539062	-13.615644454956055	123.53813171386719	200.1630859375	123.85484313964844	224.64877319335938	14.198644638061523	142.02667236328125	252.17579650878906	109.14720153808594	42.846492767333984	113.113525390625	113.10660552978516	355.5277099609375	133.43386840820312	124.04691314697266	50.93644714355469	255.32017517089844	156.9169158935547	173.1644287109375	16.102209091186523	374.3764343261719	485.92608642578125
30	60	1605.0113525390625	3503.924072265625	4995.99755859375	7788.03955078125	9540.8935546875	9177.916015625	3044.71728515625	4414.83642578125	6689.02392578125	4599.43115234375	1806.8226318359375	7931.27099609375	4541.28955078125	18465.37109375	1805.3780517578125	3301.926513671875	4888.7216796875	7718.4287109375	8095.00927734375	10095.5625	2932.1630859375	6053.9560546875	4892.71923828125	7293.296875	5924.416015625	21523.986328125	212.7987518310547	1212.6458740234375	5858.36767578125	4297.27783203125	4010.9248046875	833.2138061523438	9612.92578125	6382.91015625	10628.826171875	13434.970703125	8303.958984375	6991.65185546875	8907.1240234375	7595.345703125	9044.4306640625	8534.462890625	8622.6298828125	9497.185546875	10288.669921875	7278.4677734375	6298.05224609375	7231.0439453125	10505.447265625	8197.1357421875	11449.384765625	20149.1015625	9641.3466796875	6196.53857421875	9652.3408203125	10319.9296875	8478.541015625	10863.4091796875	9821.412109375	8052.0419921875	8112.86328125	10030.5830078125	11621.95703125	6353.96044921875	15246.41796875	9277.744140625	8401.55078125	8241.595703125	9368.7421875	14196.607421875	8319.869140625	5991.7900390625	7921.765625	7795.17626953125	6666.646484375	9111.5107421875	9789.0556640625	9815.5771484375	8699.408203125	7136.326171875	5202.95361328125	8551.177734375	9296.4619140625	8631.83984375	9926.1533203125	16922.927734375	8982.10546875	10555.9892578125	9045.69921875	10954.8544921875	6847.9130859375	9710.5517578125	9488.4228515625	8119.54248046875	8655.9677734375	10238.4873046875	11849.892578125	4442.59765625	15568.2431640625	8967.0732421875
60	90	4965.458984375	9256.9033203125	15554.2958984375	20665.263671875	23617.84375	26395.029296875	11614.3662109375	11479.74609375	16773.17578125	13660.2109375	5193.6357421875	27461.83203125	13759.96875	52795.71484375	5202.91455078125	8424.37109375	15036.8466796875	22370.51953125	25751.53515625	30332.0234375	8976.5361328125	16043.2685546875	14625.1787109375	17110.63671875	15075.244140625	43569.54296875	181.48594665527344	3352.255859375	13216.470703125	13697.2158203125	7517.2060546875	2335.7783203125	26524.001953125	20680.0546875	32266.60546875	39149.046875	16297.1318359375	19707.208984375	26109.107421875	20795.716796875	24549.21875	26361.015625	25867.205078125	27030.212890625	28806.458984375	21838.4765625	15424.73828125	24101.44921875	28706.6953125	22545.1796875	32514.1796875	55993.31640625	29477.326171875	24170.630859375	28171.798828125	27946.134765625	25357.76171875	32680.546875	28839.953125	26553.0859375	23021.232421875	27972.5078125	32325.068359375	15498.1416015625	38833.71875	23801.376953125	24278.185546875	21042.962890625	30833.033203125	42028.296875	18024.345703125	20117.1953125	26078.189453125	21423.388671875	28235.54296875	27740.013671875	27784.22265625	27768.521484375	25940.798828125	21675.974609375	14637.3310546875	27293.2421875	27875.916015625	24369.244140625	31397.6328125	51692.33984375	28301.2578125	29199.71484375	28184.548828125	30462.755859375	21765.466796875	30338.6015625	28923.263671875	26452.357421875	24794.37890625	28842.974609375	34537.3984375	15172.0732421875	35146.04296875	20871.890625
90	120	8307.3564453125	16049.6845703125	27723.7890625	37766.23828125	45191.1015625	45120.5546875	21562.365234375	19291.103515625	28865.798828125	23226.00390625	9906.9990234375	43629.640625	22656.79296875	66379.6328125	8721.6220703125	14994.94921875	27062.625	39218.81640625	42766.5078125	50259.19921875	13938.775390625	28867.724609375	25749.376953125	33151.03515625	26747.208984375	72200.4609375	653.9907836914062	5660.3076171875	26335.482421875	24599.341796875	9551.978515625	4243.95166015625	42646.40234375	36749.171875	55829.5234375	68751.0625	28916.48828125	32216.30859375	46665.6640625	38384.73046875	46000.4296875	47545.6484375	46245.03125	49778.078125	48709.484375	38874.1171875	33154.4296875	41483.6015625	52207.91015625	46223.5546875	58378.16796875	98705.9140625	51902.8984375	45115.78125	50233.35546875	50687.69921875	43846.77734375	57813.8203125	51491.66015625	48533.109375	41184.26953125	48590.2890625	59770.91796875	27061.708984375	62537.61328125	36403.92578125	44132.95703125	39243.5859375	54724.734375	70774.3828125	26614.361328125	34783.40625	46187.2109375	37373.38671875	48243.23828125	49792.984375	45968.7109375	49251.02734375	49502.08984375	38875.59375	26439.287109375	48460.25390625	50897.73828125	49418.73046875	56575.27734375	90195.3828125	51552.65625	48472.08203125	51033.203125	52033.28125	39031.546875	54917.37109375	51267.046875	48842.0390625	43076.89453125	49977.859375	62823.2734375	27251.2578125	58299.921875	35223.234375
120	150	11439.3779296875	23435.861328125	38834.17578125	52371.1640625	62396.89453125	67602.1640625	22768.408203125	28852.625	42110.30859375	29302.69140625	9794.3857421875	55407.046875	33260.484375	79334.671875	11531.4873046875	21940.083984375	38385.90234375	52256.73828125	64470.40234375	69381.0078125	25658.78125	39244.99609375	38547.26171875	43606.0625	35648.76953125	94078.0625	842.0764770507812	7388.87353515625	37075.609375	37022.02734375	9153.837890625	5803.49365234375	65356.37890625	53065.6640625	80342.6875	97657.765625	41154.8515625	47604.84375	65784.0625	56078.01953125	69390.421875	68424.40625	67050.03125	69515.5078125	71260.546875	55938.87890625	32358.662109375	64015.046875	72035.375	71594.4375	81072.234375	133596.28125	76665.8359375	63606.06640625	73914.7265625	70901.6875	56745.9765625	82042.75	73559.1875	69038.5546875	56485.3203125	70233.96875	81313.640625	38240.46875	97326.3203125	50561.51171875	64960.80078125	58264.12109375	79437.6875	95023.4921875	34570.7265625	47007.515625	67930.4609375	55795.2734375	67625.0234375	72132.4453125	65777.1484375	69712.3359375	64936.74609375	55736.16796875	39432.859375	67440.1640625	71714.28125	71466.8828125	81275.359375	122645.1875	74095.6015625	65408.3203125	72317.953125	75818.953125	50302.42578125	77367.9765625	74114.484375	71151.015625	58952.83203125	70399.046875	89785.203125	40365.6171875	82279.4609375	45176.328125
150	180	13098.6640625	25652.689453125	44958.26171875	56362.6484375	73010.0703125	74600.2734375	27944.9140625	32333.6484375	45486.43359375	34647.3359375	9646.0654296875	64966.60546875	39572.41796875	102725.1953125	12853.7158203125	25206.244140625	44220.1484375	59826.25390625	73142.0	76991.65625	26648.638671875	45172.578125	41465.0859375	55318.703125	39077.72265625	113046.6484375	730.7158203125	7920.5146484375	44964.12109375	40429.0078125	5962.4296875	6623.09375	71664.796875	57344.99609375	93632.7890625	104629.7265625	42117.85546875	54030.39453125	75978.625	63462.87890625	68780.2890625	77727.296875	74795.578125	76125.2578125	77608.328125	65076.8515625	40570.07421875	72625.2265625	80078.8984375	79024.375	91911.9375	144831.140625	86493.328125	71964.3515625	83557.9453125	82947.7265625	58597.62890625	91845.3671875	81337.640625	82771.5625	64289.98046875	80139.8046875	89108.59375	45771.546875	113491.7265625	53828.640625	72182.0703125	66905.765625	92334.609375	109477.96875	42127.55078125	57366.57421875	77409.8203125	62531.08984375	71547.3203125	81127.09375	75569.875	76702.484375	73010.7890625	65328.7890625	42563.9140625	75644.7109375	79854.0390625	82319.34375	89899.8203125	134120.09375	85268.40625	79705.453125	82665.7578125	84697.6640625	61401.54296875	90282.7890625	83264.421875	81038.7265625	68197.875	77976.9765625	95024.53125	48132.3125	91840.9609375	53252.4375
180	240	13937.1181640625	27462.68359375	44921.703125	59024.74609375	71484.2109375	76925.1796875	28119.640625	32256.927734375	44156.54296875	38804.5546875	9251.681640625	71197.8984375	38308.83984375	81755.921875	13499.8017578125	25681.7109375	44386.60546875	61475.9375	72781.96875	77594.625	31060.994140625	44336.59375	40827.88671875	50485.94921875	39739.44921875	92300.515625	10.271559715270996	8210.2705078125	43456.34765625	41823.76171875	3457.3681640625	6862.8154296875	72207.5703125	59100.65625	91343.6640625	107522.734375	39984.29296875	55903.16796875	75922.5390625	63789.5234375	69618.6328125	75086.375	73661.21875	76282.703125	77856.65625	64100.28125	44000.3828125	73593.171875	76814.34375	80203.375	88914.328125	141672.25	87933.625	65830.484375	83231.5390625	80442.0390625	62704.7734375	91155.0625	82020.5390625	82292.34375	65962.1875	80605.5546875	83764.578125	46494.375	109066.6171875	53932.7578125	74951.0703125	67212.734375	89926.328125	107996.8359375	40953.0	56219.0390625	78628.2421875	64434.65625	73315.28125	81185.03125	73681.2109375	75841.265625	73316.109375	64893.7421875	42287.40625	80346.2734375	83505.7265625	79803.4921875	87487.9609375	130476.640625	88961.1953125	83012.7265625	82540.7421875	85474.046875	56847.03515625	89600.8828125	83455.90625	84524.6796875	67867.9453125	78540.0078125	99627.765625	44725.0546875	101433.0	51408.8984375
240	300	14480.970703125	26619.2421875	43425.30859375	58600.01171875	67127.6796875	73799.15625	28590.478515625	31358.220703125	41135.53125	41419.59375	8132.08642578125	77391.375	36445.62890625	72191.1875	14261.326171875	25538.189453125	43243.12890625	58117.578125	70645.6796875	74506.984375	28765.37109375	42494.8515625	39716.12109375	47502.24609375	39884.32421875	82689.3671875	3.6118569374084473	8211.5498046875	43742.45703125	39846.99609375	2368.137451171875	7252.779296875	68393.71875	60077.9140625	84821.953125	96316.4609375	44351.71875	52322.5078125	71730.5078125	61956.78515625	66379.7109375	69829.546875	70051.6015625	72754.25	73201.5859375	61728.81640625	46467.515625	75150.796875	74564.703125	73979.8046875	81814.015625	122109.9921875	84733.84375	64873.46484375	78422.8671875	75565.3125	58611.88671875	86727.3984375	77865.109375	79740.4609375	62913.14453125	76445.3203125	76022.8203125	43332.46484375	93132.3203125	53647.20703125	68949.2265625	60250.59765625	84413.6328125	100189.578125	38237.62109375	53833.8359375	75264.046875	62228.234375	65730.2421875	75187.984375	69358.0078125	70881.1953125	69230.9921875	62337.38671875	42914.46875	78483.8046875	76847.1953125	73846.140625	83516.46875	115651.90625	85102.2578125	75748.2578125	78938.2578125	79227.8125	55311.296875	85349.7734375	78268.609375	80659.46875	64440.31640625	74269.6328125	89887.0703125	46323.5	83705.984375	50281.80078125
300	360	14797.3603515625	25746.369140625	41125.34375	54887.27734375	64069.9921875	69509.2265625	29335.93359375	30670.4921875	39865.36328125	36507.296875	7413.66259765625	61921.17578125	35560.390625	56668.20703125	14376.650390625	23326.53125	40818.3125	53845.72265625	63177.8125	68134.140625	32488.111328125	39283.8671875	40404.87890625	46260.171875	38981.34765625	71562.0078125	-425.61346435546875	8221.9775390625	39753.94921875	36924.640625	1685.327392578125	7357.0654296875	65320.0859375	51080.8203125	76860.8359375	88202.421875	39081.72265625	51035.1015625	65702.296875	56551.29296875	57202.73828125	62293.7421875	63620.5078125	66796.3203125	69186.28125	56868.328125	41508.734375	68340.140625	70041.4921875	67021.484375	74559.546875	108807.640625	77288.3046875	59942.546875	71307.6796875	70268.2109375	52947.43359375	78964.96875	70806.828125	73730.765625	57679.03515625	70586.15625	76770.03125	41756.96484375	83456.1953125	51655.3984375	62766.078125	57604.5078125	77035.1015625	89016.6171875	36105.26953125	49894.06640625	70237.1171875	58399.80859375	60266.70703125	68924.25	62915.62890625	64919.234375	66135.6640625	58287.6640625	39943.296875	72658.265625	69716.53125	69931.890625	75167.390625	104159.609375	77756.125	69412.8046875	72498.828125	72050.90625	54538.2578125	77415.1640625	72283.421875	74361.234375	59570.8046875	67473.6171875	85029.609375	45168.44140625	79030.3515625	47254.85546875
360	480	15120.857421875	24894.796875	36789.6328125	49896.60546875	58999.65234375	60116.4921875	27544.318359375	29344.474609375	35585.23046875	40085.70703125	4619.44921875	55002.78125	32634.87890625	54375.28515625	14820.630859375	23779.88671875	36915.94921875	50804.6640625	57340.62890625	59799.5859375	31051.095703125	35235.46875	39304.94921875	45802.65234375	36069.09375	59100.15234375	-448.65960693359375	8203.2421875	37504.58984375	33701.16796875	155.3509063720703	7413.57763671875	56419.796875	47603.78515625	65768.46875	75450.046875	37637.55078125	45267.890625	58017.90625	51264.984375	53077.640625	52949.171875	56814.8203125	58845.921875	61043.06640625	50562.87890625	37483.91015625	59361.96875	58590.65625	56126.265625	65209.21875	84424.2578125	67048.0234375	53722.359375	62983.796875	61544.84765625	49883.7890625	68074.625	62587.6796875	65470.0859375	53289.515625	61301.0625	64489.86328125	38109.35546875	68895.609375	46397.30078125	54608.15234375	51462.00390625	66471.546875	76887.8515625	33708.9921875	46209.0390625	61144.75390625	52736.66015625	53561.50390625	58590.43359375	55327.05078125	56473.140625	57190.5234375	52288.14453125	38850.28125	63194.09765625	61783.3359375	56999.90625	65041.59375	80703.40625	67345.7578125	59216.97265625	64270.16796875	61919.0703125	46212.66796875	67185.5546875	61818.7734375	65994.2421875	53898.31640625	59343.98828125	71964.4609375	40509.62890625	62087.06640625	43964.890625
480	600	15423.27734375	24916.501953125	31926.0234375	45007.62109375	46496.77734375	50409.84765625	30222.2421875	26345.462890625	30319.15625	35540.6875	2975.382568359375	49931.28515625	31415.869140625	33408.3359375	14776.3994140625	23288.099609375	32628.251953125	44525.14453125	47330.0703125	49324.92578125	27967.13671875	32089.509765625	37205.4296875	39978.234375	33610.0234375	43289.42578125	-590.677978515625	8062.07373046875	28930.5	30305.271484375	-1002.0534057617188	7624.01904296875	46988.20703125	43931.14453125	53931.578125	62681.95703125	35543.57421875	38199.78125	47212.734375	45707.21484375	43873.59375	43297.89453125	47600.5546875	48063.23828125	51651.7421875	42875.3125	35248.41796875	49929.5390625	48465.5078125	45923.1875	53591.0	64733.3203125	56035.2890625	44361.41015625	51391.4609375	49531.10546875	45786.52734375	56557.49609375	52336.40625	55019.1328125	45185.6171875	50939.875	54042.58984375	34840.06640625	55300.85546875	42369.171875	46442.54296875	43517.53125	54279.16015625	63448.546875	32806.01171875	39341.7734375	51068.015625	46559.34375	45576.17578125	48228.0078125	46660.17578125	45700.22265625	47702.953125	44380.0078125	36403.83984375	54342.8671875	51822.92578125	49154.7421875	54187.58984375	61455.97265625	56443.8203125	51241.95703125	53697.07421875	52889.99609375	39583.5234375	56293.20703125	52560.7265625	55265.7421875	46509.2265625	49665.90234375	59314.7578125	36953.08984375	48106.4921875	38264.8671875
600	900	15771.8642578125	22621.23828125	25171.12890625	35618.12109375	35506.94921875	36966.66015625	26878.484375	23521.470703125	24420.65625	30742.693359375	2030.716552734375	37844.45703125	28182.275390625	26931.109375	15152.7705078125	21240.3125	25686.474609375	35883.81640625	35274.515625	36674.44921875	28427.271484375	25711.4140625	33174.68359375	32265.240234375	28950.669921875	29493.98046875	-683.8035888671875	8107.8798828125	24434.61328125	26605.25	-1777.423583984375	7725.50830078125	35259.640625	34243.8125	39445.25390625	46520.23828125	29164.35546875	30321.408203125	35538.16796875	33834.26171875	32158.759765625	30950.3046875	35862.85546875	36548.21484375	38273.0078125	32603.103515625	28524.916015625	37251.55078125	36488.41015625	34355.828125	38847.921875	44692.9296875	41217.16796875	34505.5859375	38363.05078125	37507.1484375	35282.7265625	41440.796875	38771.04296875	41084.140625	35731.53125	37575.6796875	39181.19921875	31510.267578125	40422.90234375	34104.44140625	35380.8515625	35454.83984375	41165.40625	45670.5703125	26159.845703125	31508.08203125	38696.6875	36103.28125	35236.390625	35546.80859375	35194.625	34474.97265625	37489.5	35142.40625	29774.869140625	40181.33984375	38838.12890625	37680.9609375	40638.9453125	43372.765625	43009.01171875	38926.3515625	39561.78515625	39040.73046875	31926.16796875	42075.6875	38974.3046875	42266.58984375	35862.83203125	36564.33203125	44346.96484375	30576.11328125	35125.71875	32380.033203125
900	1200	15682.8837890625	20511.107421875	18455.775390625	26854.1953125	23543.470703125	25565.248046875	25702.568359375	19394.67578125	18679.69921875	24276.68359375	1236.137451171875	25075.609375	23548.2265625	20830.12890625	14996.23046875	19603.595703125	19193.76953125	27026.365234375	23542.1953125	25082.529296875	26618.861328125	19170.830078125	26921.244140625	21508.6171875	24542.92578125	24705.73828125	-673.9561767578125	7753.8505859375	16193.2861328125	22944.4609375	-2022.4498291015625	7988.92724609375	25750.671875	27199.173828125	27882.01171875	33063.1484375	24497.244140625	22873.7578125	25676.615234375	26369.841796875	26057.75	20813.19140625	26755.28125	25788.24609375	29032.806640625	23573.453125	21161.767578125	27539.763671875	25768.19140625	25501.8984375	27755.02734375	29834.193359375	29449.21484375	25498.3125	27838.599609375	27098.7421875	26097.83203125	29727.17578125	27817.982421875	30295.697265625	27046.470703125	27086.79296875	26849.35546875	26545.68359375	29100.6171875	26934.17578125	25801.458984375	27002.951171875	29801.59765625	32933.26171875	22638.126953125	23339.3515625	28141.591796875	27593.265625	25864.80859375	25481.537109375	26649.20703125	24555.177734375	27866.9140625	26035.37890625	22316.2265625	28374.193359375	29176.009765625	27901.015625	29788.078125	30365.177734375	31290.53515625	28074.048828125	29372.53125	27190.345703125	24195.439453125	30551.83984375	28334.083984375	31178.26171875	26724.791015625	26621.86328125	31278.115234375	24054.21875	26295.07421875	24965.732421875
1200	1500	15397.953125	18932.482421875	14609.462890625	21017.28515625	18797.28515625	19425.4140625	22007.41015625	16630.4765625	14296.7900390625	20942.607421875	1031.95458984375	15899.30859375	20597.21875	16033.0615234375	14910.544921875	18553.22265625	15116.2978515625	21696.509765625	16754.958984375	18728.828125	24091.724609375	15381.7900390625	22012.080078125	14187.08984375	20729.48828125	20261.728515625	-625.1493530273438	7561.34130859375	13836.375	19654.49609375	-1596.567138671875	8213.7138671875	20567.451171875	20738.72265625	21831.494140625	25603.890625	21817.568359375	18148.7421875	20132.658203125	20976.873046875	21285.345703125	16052.84375	21677.94140625	20999.921875	23140.8671875	18846.234375	17218.4453125	22952.43359375	21486.029296875	20767.625	22211.099609375	24005.783203125	23412.501953125	20895.4765625	21643.34375	21928.6328125	21895.638671875	23269.421875	22231.162109375	24018.7578125	21944.087890625	20993.232421875	22407.92578125	21434.76953125	24912.4765625	21347.498046875	21133.306640625	22386.681640625	23488.177734375	25432.419921875	18623.69140625	19008.02734375	22499.796875	22471.15234375	20088.70703125	19776.47265625	21256.671875	20218.41796875	22292.1796875	21394.341796875	18083.10546875	21220.076171875	23498.521484375	22751.759765625	24325.90625	22761.361328125	24916.7734375	22840.537109375	23445.044921875	21818.21875	18752.462890625	24731.501953125	22357.69921875	24980.638671875	21790.46484375	21457.0546875	25698.20703125	19460.916015625	21016.361328125	20543.41015625
1500	1800	14944.3828125	17773.23046875	11654.658203125	17227.57421875	13881.91015625	14752.86328125	20235.283203125	14099.455078125	12181.4736328125	17426.5703125	835.2396850585938	10630.876953125	18090.443359375	12926.505859375	14397.0556640625	17308.11328125	12297.3271484375	17079.4296875	13289.076171875	14620.9853515625	19584.98828125	13114.4814453125	19002.8203125	11122.2861328125	18110.0390625	19856.306640625	-851.801513671875	7453.65478515625	9682.55859375	17490.6015625	-1603.2236328125	8279.482421875	18158.177734375	18740.4921875	18197.623046875	22393.787109375	18252.5546875	15917.9931640625	16566.27734375	18354.68359375	17741.486328125	13177.072265625	19066.859375	17301.013671875	20435.8125	15736.0234375	16291.0595703125	18437.703125	18304.5625	17091.54296875	18519.943359375	18635.55078125	19491.375	18197.484375	17728.625	18365.7265625	19308.365234375	19477.0234375	18670.654296875	20649.2109375	18232.296875	17466.84375	18889.470703125	18497.08203125	21246.673828125	18065.77734375	18352.578125	18871.40625	19987.330078125	21601.28125	15571.8720703125	16833.33203125	19109.673828125	18709.357421875	18282.1640625	16753.703125	17734.0234375	16963.076171875	18559.0703125	17999.40234375	15672.314453125	18354.8203125	19304.919921875	18967.26953125	20761.330078125	19000.53515625	20822.546875	18752.400390625	19630.4296875	18435.310546875	15269.919921875	20974.65234375	18950.361328125	21135.2890625	18360.810546875	18087.244140625	23489.349609375	16401.806640625	19327.779296875	17381.615234375
1800	2100	14417.53515625	15282.6015625	9586.853515625	13923.28125	10392.3095703125	11665.3818359375	17401.44140625	11811.6171875	9721.5517578125	13904.5908203125	1331.235595703125	6193.400390625	15220.0869140625	5417.85498046875	13911.1904296875	14945.1611328125	10156.58984375	13692.333984375	9246.2734375	11297.9306640625	17166.173828125	10402.5908203125	15867.58984375	5790.4873046875	16389.802734375	13965.0966796875	-1032.9488525390625	7498.83837890625	7693.94775390625	15627.5498046875	-1599.6368408203125	8213.3974609375	15372.87109375	17506.955078125	14599.0849609375	18034.375	15341.966796875	13794.51171875	13836.056640625	15776.958984375	16738.2109375	11288.396484375	16044.90625	16762.095703125	17239.80078125	13065.982421875	13263.7578125	16676.078125	15218.26171875	14046.7705078125	16030.244140625	15495.958984375	15228.001953125	15020.537109375	14499.4599609375	17265.5703125	14220.65625	15478.1484375	15781.248046875	16013.7421875	16005.3291015625	14511.037109375	16723.1640625	15554.072265625	18306.130859375	16125.427734375	15633.0390625	15588.2685546875	17616.216796875	20301.751953125	14138.294921875	14678.6015625	15635.021484375	17641.25390625	15944.2353515625	14471.7001953125	16333.5185546875	15656.640625	15286.310546875	14563.9853515625	13689.54296875	15406.10546875	17688.04296875	16801.302734375	17924.228515625	15787.642578125	16869.837890625	16498.306640625	16550.396484375	15458.873046875	15636.6103515625	17327.88671875	15857.7939453125	17426.123046875	15880.103515625	15420.6142578125	18800.771484375	13231.5615234375	16159.0849609375	14453.3076171875
2100	2400	13868.59765625	13784.771484375	7779.888671875	10874.9736328125	9071.470703125	9086.4921875	13084.2724609375	10308.5908203125	9099.7353515625	13494.783203125	1793.1610107421875	1146.6331787109375	12591.38671875	2264.597900390625	13074.603515625	13417.6181640625	8386.7294921875	10836.7333984375	7782.14013671875	9585.060546875	13792.603515625	9433.3203125	14370.6015625	2506.885498046875	13983.3095703125	10561.0947265625	-976.3230590820312	7310.8427734375	7703.677734375	13973.07421875	-2096.00634765625	8149.3720703125	14034.7822265625	14545.4619140625	12866.5322265625	16460.740234375	12959.048828125	12930.2890625	11698.5595703125	14230.7705078125	14010.654296875	10173.8486328125	14299.48828125	14328.3701171875	15188.3916015625	11386.685546875	11115.7392578125	16170.521484375	13003.4111328125	13804.771484375	14125.7421875	13017.15625	13501.0263671875	13104.8212890625	12264.33203125	14318.9638671875	13118.97265625	13869.279296875	13778.0419921875	13718.505859375	13994.78515625	12746.2822265625	15203.630859375	13307.716796875	19061.255859375	14540.708984375	14051.1669921875	14264.609375	15492.904296875	16664.4140625	13959.70703125	14902.4443359375	13942.3876953125	16263.7001953125	15192.802734375	13010.619140625	15467.423828125	14342.6328125	14377.546875	12829.8203125	11680.6337890625	14079.3701171875	16922.044921875	17429.59765625	16321.7451171875	14786.2998046875	15205.0419921875	15489.14453125	13864.16796875	14416.02734375	12767.9892578125	15276.255859375	14172.822265625	15103.1591796875	13815.984375	13708.8720703125	16542.21875	11584.58203125	13372.921875	13102.7744140625
2400	2700	13004.09765625	12520.212890625	6676.01806640625	8794.4716796875	7297.33740234375	7835.70263671875	13180.6142578125	8643.6552734375	8198.322265625	10005.310546875	1737.841796875	-392.4413757324219	11567.6982421875	3749.45458984375	12476.830078125	11978.0517578125	7124.91064453125	8785.4150390625	6528.5859375	8029.14453125	12006.3515625	7604.0830078125	11757.43359375	-648.8396606445312	12027.373046875	8658.3818359375	-785.715087890625	6982.34033203125	4882.83349609375	11877.8720703125	-1594.215576171875	8017.435546875	11971.0556640625	13333.884765625	11571.900390625	14467.4677734375	12022.0244140625	12358.6650390625	10276.2705078125	13054.7744140625	13216.1669921875	8230.3291015625	13985.669921875	13370.349609375	13490.1748046875	10492.923828125	9596.3828125	14578.5556640625	12079.5322265625	12367.947265625	12549.2607421875	11644.482421875	12036.78125	11369.7109375	10559.365234375	13151.6884765625	11961.5634765625	11698.0791015625	11858.689453125	11877.318359375	12286.3974609375	11842.025390625	11847.7138671875	11370.7509765625	15988.6875	12749.328125	12676.9228515625	13067.9912109375	13156.0087890625	15271.00390625	10944.0556640625	13416.142578125	11924.4326171875	14539.4248046875	13349.0078125	10567.087890625	13341.490234375	12220.0556640625	13481.31640625	11797.470703125	11070.955078125	11126.607421875	15102.8544921875	15543.9453125	13939.09765625	13563.501953125	13700.853515625	13773.134765625	12293.1767578125	12228.1708984375	11237.453125	13394.1416015625	12220.962890625	13051.3349609375	12454.3876953125	12329.3203125	16461.181640625	9118.8671875	11107.5947265625	11371.7919921875
