frame_start	frame_end	Left-Cerebral-White-Matter	Left-Cerebellum-White-Matter	Left-Cerebellum-Cortex	Left-Thalamus	Left-Caudate	Left-Putamen	Left-Pallidum	Brain-Stem	Left-Hippocampus	Left-Amygdala	CSF	Left-Accumbens-area	Left-VentralDC	Left-choroid-plexus	Right-Cerebral-White-Matter	Right-Cerebellum-White-Matter	Right-Cerebellum-Cortex	Right-Thalamus	Right-Caudate	Right-Putamen	Right-Pallidum	Right-Hippocampus	Right-Amygdala	Right-Accumbens-area	Right-VentralDC	Right-choroid-plexus	AirCavity	Skull	Vermis	Pons	CSF-ExtraCerebral	Head-ExtraCerebral	ctx-lh-bankssts	ctx-lh-caudalanteriorcingulate	ctx-lh-caudalmiddlefrontal	ctx-lh-cuneus	ctx-lh-entorhinal	ctx-lh-fusiform	ctx-lh-inferiorparietal	ctx-lh-inferiortemporal	ctx-lh-isthmuscingulate	ctx-lh-lateraloccipital	ctx-lh-lateralorbitofrontal	ctx-lh-lingual	ctx-lh-medialorbitofrontal	ctx-lh-middletemporal	ctx-lh-parahippocampal	ctx-lh-paracentral	ctx-lh-parsopercularis	ctx-lh-parsorbitalis	ctx-lh-parstriangularis	ctx-lh-pericalcarine	ctx-lh-postcentral	ctx-lh-posteriorcingulate	ctx-lh-precentral	ctx-lh-precuneus	ctx-lh-rostralanteriorcingulate	ctx-lh-rostralmiddlefrontal	ctx-lh-superiorfrontal	ctx-lh-superiorparietal	ctx-lh-superiortemporal	ctx-lh-supramarginal	ctx-lh-frontalpole	ctx-lh-temporalpole	ctx-lh-transversetemporal	ctx-lh-insula	ctx-rh-bankssts	ctx-rh-caudalanteriorcingulate	ctx-rh-caudalmiddlefrontal	ctx-rh-cuneus	ctx-rh-entorhinal	ctx-rh-fusiform	ctx-rh-inferiorparietal	ctx-rh-inferiortemporal	ctx-rh-isthmuscingulate	ctx-rh-lateraloccipital	ctx-rh-lateralorbitofrontal	ctx-rh-lingual	ctx-rh-medialorbitofrontal	ctx-rh-middletemporal	ctx-rh-parahippocampal	ctx-rh-paracentral	ctx-rh-parsopercularis	ctx-rh-parsorbitalis	ctx-rh-parstriangularis	ctx-rh-pericalcarine	ctx-rh-postcentral	ctx-rh-posteriorcingulate	ctx-rh-precentral	ctx-rh-precuneus	ctx-rh-rostralanteriorcingulate	ctx-rh-rostralmiddlefrontal	ctx-rh-superiorfrontal	ctx-rh-superiorparietal	ctx-rh-superiortemporal	ctx-rh-supramarginal	ctx-rh-frontalpole	ctx-rh-temporalpole	ctx-rh-transversetemporal	ctx-rh-insula
0	30	1055.0941162109375	1343.9913330078125	832.3017578125	1433.4871826171875	970.105224609375	2268.3955078125	2144.844970703125	884.7985229492188	1162.4117431640625	4094.392822265625	1798.50439453125	7637.5634765625	2181.057861328125	710.076171875	1042.207763671875	1260.89697265625	575.7764282226562	1400.738037109375	971.5565795898438	1855.973388671875	2589.74755859375	888.0343627929688	1639.3424072265625	6808.64697265625	2426.148681640625	748.72265625	7.710989952087402	859.5193481445312	1361.1829833984375	976.0535888671875	1837.6778564453125	306.6913757324219	951.4403686523438	293.3409423828125	1005.8890380859375	2569.33740234375	4257.84130859375	1080.518310546875	1655.5540771484375	302.4189453125	1893.8316650390625	1567.224365234375	1550.30615234375	1362.806884765625	1883.3812255859375	930.9234619140625	-344.2441711425781	1327.299072265625	2939.18408203125	179.2926025390625	1912.5760498046875	2981.403564453125	1896.1214599609375	1086.6336669921875	1399.93798828125	2121.099365234375	2934.45068359375	1738.811279296875	1900.519775390625	1186.4051513671875	1435.87353515625	2674.3984375	130.91636657714844	-473.3668212890625	-73.32422637939453	2437.338134765625	1061.978515625	-675.83837890625	1152.0208740234375	2507.296630859375	3308.827392578125	994.3087158203125	1155.662841796875	427.693603515625	1063.7142333984375	855.4323120117188	1458.6221923828125	1003.4512329101562	1932.3118896484375	646.7068481445312	21.614635467529297	2280.688720703125	3340.87548828125	-418.66839599609375	1870.336181640625	1167.3106689453125	1733.414794921875	2533.89404296875	1217.6290283203125	2175.25146484375	3123.666748046875	1398.0384521484375	1817.8759765625	1428.0228271484375	1130.9627685546875	2660.606201171875	490.5039978027344	-174.11932373046875	1900.380859375	2403.916259765625
30	60	9539.5732421875	13926.3154296875	8046.302734375	13281.0712890625	14690.05859375	15975.134765625	13413.328125	6931.53369140625	10601.025390625	17186.53515625	13144.904296875	16478.0546875	9842.3896484375	19836.923828125	9701.04296875	12480.2646484375	6902.58349609375	13746.068359375	12764.8095703125	14343.64453125	11875.9931640625	11051.94921875	11152.30078125	23695.9765625	13497.9921875	16870.078125	439.3673400878906	6034.86669921875	16733.1484375	8022.673828125	15552.60546875	2571.735595703125	10810.9013671875	-212.08348083496094	11860.1806640625	25402.037109375	19483.83984375	8939.6669921875	14429.1865234375	5142.22119140625	10389.966796875	17917.939453125	7114.515625	14911.32421875	13839.3486328125	10256.6005859375	-155.2348175048828	16310.880859375	18502.203125	293.0447998046875	17977.173828125	27610.369140625	15620.1865234375	6089.39111328125	14852.0771484375	19062.421875	22341.4375	18863.974609375	17081.421875	13237.021484375	14124.9599609375	20860.6328125	1744.9273681640625	-2668.919189453125	3944.339599609375	14982.7421875	11745.80078125	-4873.0966796875	13096.2685546875	27427.150390625	12639.7626953125	10309.7392578125	14153.5244140625	3896.953369140625	12253.67578125	13447.333984375	7944.91455078125	12962.2978515625	14938.8876953125	7335.17724609375	1499.8990478515625	18703.251953125	18035.35546875	-2072.010986328125	16649.533203125	20627.134765625	16344.2294921875	12166.6513671875	11160.251953125	20788.900390625	10802.6435546875	15676.33984375	15801.5693359375	11711.7783203125	10210.6455078125	17050.705078125	3430.755859375	1469.06298828125	12829.8203125	15396.55859375
60	90	20813.19921875	30440.529296875	17151.078125	29063.451171875	29986.12109375	33832.5625	25331.728515625	15511.234375	23424.06640625	32510.849609375	28988.837890625	35983.1875	17655.107421875	53081.1796875	21203.251953125	29835.861328125	15572.697265625	29033.029296875	31097.1875	31627.044921875	26830.4140625	25021.900390625	26280.517578125	35742.83984375	19969.84375	46684.59375	1807.594482421875	12633.556640625	35737.4296875	14572.13671875	33155.3046875	5360.18603515625	25267.875	-7288.93603515625	27790.0390625	55039.1484375	23950.658203125	19474.853515625	31982.103515625	7534.3935546875	20382.28515625	36832.75390625	10877.595703125	35487.96875	26638.048828125	25165.0	1080.0360107421875	37078.48046875	37858.51953125	-960.4716186523438	40583.05859375	58011.72265625	40329.44921875	13993.8203125	34574.02734375	40941.078125	43790.59375	41318.55078125	37153.7890625	31952.185546875	30017.53515625	44209.0859375	4556.17822265625	-4805.73095703125	11584.6806640625	24459.482421875	29654.11328125	-17111.462890625	31989.251953125	57001.78125	23056.060546875	21581.33203125	32177.6328125	7999.97216796875	18280.3828125	31960.642578125	13734.6376953125	28246.26953125	29660.8125	17368.36328125	1943.757080078125	42250.9453125	33228.671875	-5106.65625	39790.27734375	44936.609375	37546.234375	15504.5107421875	26189.48828125	44831.9375	20258.091796875	34095.8984375	34542.78125	27910.40625	24158.17578125	37315.0703125	6999.42822265625	5869.26513671875	17880.580078125	28401.939453125
90	120	32471.1953125	46301.93359375	26683.046875	46484.63671875	52826.78515625	53934.390625	36498.3046875	22897.375	36308.3671875	38147.06640625	42936.73828125	36884.40234375	26482.087890625	92108.0234375	32999.4609375	46416.0859375	24150.203125	45228.75390625	50966.9453125	50381.55859375	35092.453125	39552.3125	37684.9375	42624.78515625	29848.431640625	76921.5078125	2823.9052734375	18900.8515625	59942.49609375	20554.5390625	50497.1875	7927.94482421875	41268.13671875	-12515.2509765625	48414.94921875	83599.40625	24862.482421875	30843.423828125	53283.4140625	10252.951171875	24074.794921875	57020.51953125	15535.0400390625	58426.31640625	44815.00390625	38794.7890625	3187.36572265625	59209.84375	54936.35546875	-4307.80224609375	67032.5546875	89152.5234375	62764.625	16746.93359375	56465.5390625	65425.3203125	59411.6640625	66944.4921875	58216.12109375	52977.9609375	48633.10546875	68077.15625	5941.9521484375	-5670.79443359375	15995.0322265625	37736.94140625	49543.359375	-27698.80859375	48830.48828125	87886.34375	23165.767578125	33773.72265625	50393.91015625	11750.0732421875	24925.931640625	49166.52734375	19184.962890625	47765.078125	46155.5	26905.49609375	4629.82470703125	69289.078125	51702.7109375	-4301.89892578125	63056.45703125	69805.9296875	56279.44921875	29977.33984375	44234.203125	68256.2734375	32092.484375	55220.8046875	54784.671875	46213.84765625	38432.171875	58909.63671875	10118.4619140625	7381.14404296875	32272.18359375	38736.8203125
120	150	36260.3125	53949.58984375	30851.373046875	51760.69140625	56381.5234375	58015.37109375	36033.1796875	25702.783203125	41824.37109375	40212.34765625	48591.21484375	22920.73046875	24652.044921875	110420.328125	37135.9609375	52686.62109375	28379.677734375	51844.01171875	58285.9140625	55995.0546875	41599.8515625	43959.58203125	42220.1640625	32988.5625	26653.35546875	84365.0546875	2913.873291015625	20376.529296875	69872.9921875	22872.537109375	55516.59375	8908.076171875	46897.75390625	-13938.6396484375	58614.0546875	95156.125	10949.5390625	34949.953125	63084.140625	10216.6064453125	19522.728515625	62754.9921875	13786.525390625	66415.234375	45659.33203125	45888.3515625	3121.180908203125	64289.6953125	56670.76953125	-2851.147705078125	76836.9453125	102775.109375	71654.125	17609.666015625	63442.62890625	76590.375	69965.6328125	75955.2734375	67650.25	61244.015625	55194.984375	76032.3046875	9317.6162109375	-692.4226684570312	24094.4921875	35899.49609375	59373.734375	-27498.2265625	60052.8203125	95347.9375	13519.416015625	37936.8984375	59339.21875	10112.0791015625	27607.6953125	57097.32421875	17219.1875	55007.99609375	53404.69140625	31259.2265625	4704.47021484375	81312.1171875	51825.08203125	-2379.137451171875	71508.59375	75168.8359375	64992.3671875	23789.5234375	48020.078125	78766.5703125	24560.6640625	63752.16796875	60804.03515625	52470.2890625	45159.7578125	62646.9296875	15438.357421875	15826.1259765625	33056.91796875	39279.921875
150	180	35743.84375	51554.19140625	31206.634765625	53013.63671875	58966.3359375	58038.1640625	33336.87890625	25616.666015625	40602.7734375	33273.0625	47551.578125	21434.0625	21257.671875	113621.8828125	36707.77734375	51942.1796875	28695.720703125	53071.125	58842.5	56757.41015625	36580.7734375	44772.109375	40412.9375	33570.74609375	24636.638671875	79228.015625	3074.348388671875	19981.23046875	70707.28125	21170.3984375	53284.953125	8865.306640625	47306.6875	-12360.4306640625	59473.44140625	92918.046875	9513.2333984375	35195.71484375	61299.5078125	8192.0009765625	15887.357421875	58825.2265625	12541.3916015625	63157.89453125	47268.83203125	45753.16015625	2935.529052734375	63416.359375	55639.37109375	-809.14794921875	78149.640625	96752.9609375	72689.859375	21261.498046875	61293.25	72726.609375	72693.8203125	74459.9140625	67343.640625	62818.35546875	57560.72265625	75410.9296875	7655.64013671875	-1026.927001953125	23509.7421875	37588.15625	59467.9296875	-25783.703125	61150.53125	96767.671875	14642.94140625	40082.0546875	60876.1328125	8585.4677734375	27774.810546875	56526.6640625	14283.5439453125	55487.44140625	49710.5234375	30289.28125	3454.409423828125	81875.265625	50345.83984375	-1291.2247314453125	67618.109375	75537.9921875	65796.65625	25536.3203125	48967.94140625	76763.6796875	30102.3046875	64318.1640625	60629.5234375	53831.6171875	45534.5703125	62312.82421875	11802.0107421875	15431.25	38376.703125	37136.0234375
180	240	34617.56640625	52235.29296875	30298.869140625	51579.83984375	58883.30859375	56894.57421875	34851.69921875	25447.626953125	39148.796875	35014.90625	44872.17578125	26345.140625	22230.787109375	113285.5546875	35259.44140625	50060.20703125	28140.658203125	50541.07421875	58690.62890625	53154.4765625	38955.35546875	43462.41796875	40293.98828125	24230.666015625	25615.103515625	69047.8671875	2630.407958984375	19429.41015625	67142.25	21275.736328125	50118.1640625	8837.3359375	46416.28125	-6894.400390625	56115.1328125	83573.265625	8300.619140625	34449.2109375	58844.66015625	7163.52880859375	18429.59765625	55595.23046875	12957.923828125	62849.1796875	44465.9453125	45648.15234375	7429.28466796875	60808.87890625	52157.3203125	1077.6571044921875	71495.515625	91607.625	67473.953125	15112.6474609375	59598.28515625	68045.4921875	66725.09375	71723.1484375	62843.66796875	58682.14453125	54566.9296875	71905.46875	9110.7080078125	-483.2055358886719	24199.0390625	35711.8125	55908.05078125	-23801.884765625	57597.26953125	85916.28125	7913.43212890625	37461.16015625	58830.80859375	9613.583984375	26482.142578125	52722.1640625	15756.6181640625	51722.83203125	48879.91796875	31274.73046875	6516.06787109375	78216.9609375	45928.49609375	-1661.93017578125	64815.203125	69281.4921875	60948.1640625	25352.736328125	47769.71484375	70425.3203125	29776.09375	60576.390625	57669.9453125	53075.08203125	44713.3359375	61534.92578125	11129.140625	15525.3427734375	32674.96484375	39690.8828125
240	300	32442.57421875	48279.234375	29845.478515625	49846.6640625	56396.58984375	53899.28125	33696.6953125	25150.15234375	37384.375	37126.61328125	40684.49609375	19687.21875	22538.416015625	109002.3203125	32754.080078125	46773.86328125	27541.212890625	50531.41796875	55573.2734375	50865.96484375	35119.9375	41602.3046875	39970.53515625	24642.60546875	22888.017578125	74400.34375	1929.1422119140625	18194.55078125	59847.296875	22246.251953125	45422.51953125	8792.734375	46635.41015625	-4079.65185546875	51854.4765625	75976.109375	11387.9111328125	33378.265625	56188.9375	8999.2314453125	17685.41796875	51292.78515625	11897.2724609375	56003.43359375	41615.98828125	44032.703125	7948.037109375	57358.64453125	49736.09375	3497.1640625	65907.078125	83024.703125	62708.36328125	16665.533203125	56066.83203125	61168.83203125	59421.984375	65694.46875	58993.32421875	58019.9453125	52659.68359375	66177.3203125	10215.6328125	8278.5439453125	32033.693359375	35390.62109375	50363.95703125	-17285.2109375	52577.69921875	78803.734375	8146.4599609375	36390.27734375	55577.03125	8878.953125	25455.5625	47780.92578125	15480.5078125	48943.65234375	46659.84765625	31313.212890625	6490.6865234375	67000.484375	44630.09375	-1187.344482421875	59311.703125	64104.2734375	57057.63671875	22141.353515625	42825.7734375	64873.109375	36812.05859375	55186.54296875	54256.55078125	50054.40234375	43771.16015625	54443.078125	13331.064453125	18418.13671875	30413.908203125	36212.71484375
300	360	30359.16796875	46637.6328125	29056.5859375	48825.3359375	53996.0546875	50238.11328125	30010.666015625	24444.466796875	35621.5703125	36374.07421875	34146.96875	15582.6142578125	21819.294921875	99097.6328125	30361.072265625	43483.66796875	26868.97265625	49397.546875	53441.234375	49379.03125	33033.01171875	37441.22265625	38885.88671875	12638.701171875	22004.8671875	71229.6328125	1994.3292236328125	17158.25390625	55473.60546875	21858.787109375	40453.046875	8715.767578125	44245.91796875	-755.092529296875	51143.5390625	68256.0	13123.3828125	32399.11328125	53295.21875	10638.0634765625	18610.65234375	46804.9375	12326.95703125	51013.5078125	38110.6640625	40580.78125	7600.310546875	57524.1484375	43803.5234375	5043.4921875	61389.3203125	71454.09375	58562.51953125	17116.728515625	50347.99609375	56320.73828125	53369.41015625	60269.9765625	55036.30859375	53216.22265625	48469.65234375	59563.5	15000.5693359375	13096.92578125	28464.607421875	35480.51171875	47056.09375	-10219.048828125	51139.625	67750.5625	8760.041015625	34657.203125	50636.296875	10458.3388671875	25136.53125	46494.87890625	16077.2607421875	42936.81640625	44613.78125	30826.22265625	9785.2197265625	60020.9765625	42408.7890625	2692.255126953125	55485.74609375	55725.42578125	52872.8984375	26910.6171875	41137.52734375	60246.24609375	35378.953125	51794.01953125	50390.453125	47061.640625	42087.12109375	48770.2578125	19447.697265625	16702.37890625	28964.564453125	35578.08203125
360	480	27536.681640625	40713.94140625	27799.771484375	46646.234375	50484.42578125	46912.07421875	31175.62890625	23215.423828125	34621.63671875	34948.390625	27633.31640625	20075.052734375	21644.109375	90896.7265625	27688.740234375	39583.703125	25925.1171875	47477.40234375	47525.09375	45752.33984375	33433.61328125	35502.8671875	37129.94921875	18930.765625	21953.6953125	68006.3125	2191.2353515625	15779.0615234375	48752.53515625	21958.7890625	34239.7421875	8751.052734375	37694.87890625	7728.3251953125	48270.56640625	54504.50390625	16328.0712890625	29990.05859375	48753.5859375	13122.4560546875	17907.552734375	40237.46484375	16556.21875	44833.19140625	36839.35546875	38494.0390625	11418.67578125	49369.5390625	39803.171875	11234.2265625	52878.71875	60582.734375	51998.23046875	19381.546875	47116.12890625	48766.953125	46729.20703125	54687.140625	49026.1171875	48710.9140625	44639.6171875	52350.5078125	23611.119140625	18726.0234375	30296.337890625	34645.58984375	44192.13671875	-3270.82666015625	45260.56640625	56694.23828125	11683.94921875	32414.095703125	46610.68359375	12858.8349609375	25445.1796875	40411.15234375	18110.966796875	38484.3046875	40646.515625	29962.953125	12185.8291015625	54255.60546875	37231.0234375	8016.06787109375	48594.7265625	48447.7109375	47368.7578125	23593.798828125	39008.87890625	50242.45703125	32914.875	46489.9609375	46275.77734375	44756.54296875	39350.07421875	43319.20703125	23448.052734375	20869.431640625	27900.384765625	33964.95703125
480	600	24997.474609375	35338.4375	26413.7109375	42692.859375	45151.37890625	42353.76171875	30521.55859375	23934.3203125	32788.04296875	33452.68359375	21047.73046875	15639.248046875	21328.056640625	76657.078125	24854.986328125	34576.47265625	24710.38671875	43793.28125	42779.734375	43206.6640625	32785.92578125	32662.298828125	35202.47265625	17660.716796875	21890.755859375	60536.953125	2392.01708984375	14450.87109375	41719.625	21853.80078125	27611.658203125	8804.88671875	36792.515625	13484.33984375	43694.765625	44948.63671875	21642.52734375	28404.947265625	42020.40625	15742.9921875	20156.6171875	33813.95703125	19947.76953125	36158.5625	35368.32421875	35442.31640625	12811.5283203125	42096.28515625	34391.69921875	16179.8046875	46125.83984375	48661.08203125	44934.3828125	21215.8671875	41006.078125	40487.77734375	39855.18359375	47969.671875	43987.50390625	42933.03515625	39043.5078125	44932.58984375	28741.13671875	22502.326171875	32687.9375	31494.875	38349.765625	5175.5146484375	41400.09765625	47533.359375	16097.56640625	29365.953125	40747.26953125	15178.5869140625	24175.66015625	35094.625	20568.359375	32953.5390625	35546.234375	27908.9765625	14658.515625	46252.359375	32263.55859375	12436.6376953125	42824.1484375	39700.84765625	41445.90625	28209.927734375	35058.3359375	41993.76953125	29248.927734375	41552.2109375	40993.48828125	38774.81640625	35699.4296875	37212.96484375	30287.7109375	25352.611328125	26138.16015625	31216.134765625
600	900	22392.642578125	29681.41796875	24444.88671875	38335.23046875	37445.12109375	36801.84765625	30449.03125	22496.744140625	28516.55078125	27654.650390625	12898.7822265625	18141.763671875	22556.44140625	56340.55078125	22167.541015625	28866.025390625	23700.111328125	39105.41796875	35431.33984375	35812.69921875	30941.89453125	29095.361328125	31603.666015625	20440.978515625	22370.96484375	48273.59765625	2793.743408203125	13503.5009765625	32758.396484375	22462.126953125	19862.662109375	9232.1337890625	31602.818359375	21428.5546875	38571.34375	36002.14453125	21572.056640625	24629.064453125	35199.67578125	17909.3828125	20538.701171875	28425.814453125	22939.94140625	27137.271484375	30620.2421875	30733.953125	13308.6044921875	34392.19921875	28877.978515625	20575.265625	38998.8359375	37464.921875	38449.51171875	23568.44140625	35486.3671875	33847.12890625	33263.2109375	40548.0859375	36456.703125	36713.06640625	34026.04296875	36611.26171875	33579.640625	27597.978515625	29620.73828125	29592.857421875	32068.708984375	14725.283203125	37090.140625	36314.72265625	19327.712890625	26063.013671875	34464.2265625	17848.666015625	23884.884765625	29695.453125	22035.87109375	26203.228515625	32088.2890625	25811.1171875	16245.359375	37489.09765625	27318.646484375	18370.41796875	35081.41796875	30912.974609375	33304.12109375	28653.294921875	32583.71484375	33351.5703125	25241.02734375	35954.34375	35037.1484375	34169.98046875	30479.962890625	31660.5625	33729.859375	28526.359375	27838.23828125	28722.501953125
900	1200	20577.982421875	25311.486328125	20974.484375	31072.470703125	26951.873046875	29213.806640625	29657.478515625	19883.267578125	22754.748046875	24658.4921875	6911.01123046875	19758.908203125	22551.703125	32481.8671875	20199.634765625	24686.92578125	20240.232421875	32116.72265625	27108.318359375	28163.541015625	30253.708984375	23213.109375	26533.62890625	22013.521484375	24040.611328125	30074.638671875	2866.945068359375	13062.5205078125	23521.390625	22853.3125	13475.388671875	9544.52734375	25903.421875	22048.576171875	30638.431640625	27923.984375	21923.255859375	21064.9140625	28279.78515625	17807.7890625	20293.9921875	23098.044921875	21952.888671875	19548.439453125	24495.841796875	25454.439453125	13753.3046875	26302.21875	22737.013671875	20812.02734375	29866.50390625	27811.19921875	29454.28515625	23617.59765625	28365.83203125	25181.181640625	24663.259765625	32112.09375	28411.96875	28751.72265625	26503.68359375	27628.4296875	34281.109375	27398.599609375	27925.73828125	23910.47265625	25885.98828125	21788.283203125	29689.1484375	27943.818359375	18434.02734375	21020.830078125	27174.376953125	17423.076171875	21300.251953125	24229.169921875	20187.896484375	20799.166015625	24731.583984375	21379.888671875	15326.287109375	27403.603515625	22706.716796875	19561.13671875	27497.896484375	24223.212890625	26350.61328125	26583.6796875	26639.3359375	25285.095703125	25465.28515625	28997.82421875	27163.935546875	27608.50390625	24154.28125	25256.064453125	33014.28125	28218.0625	24176.69140625	23207.279296875
1200	1500	19333.63671875	22355.595703125	17448.46484375	25086.2578125	21178.587890625	22710.837890625	26077.224609375	17425.587890625	18871.099609375	19520.02734375	4017.97412109375	14769.55859375	21165.9921875	21946.271484375	19082.51171875	22518.1953125	16681.125	25200.251953125	19415.021484375	21745.935546875	27403.517578125	19077.873046875	20502.99609375	20005.2109375	22633.232421875	21985.5078125	2912.06689453125	12904.80078125	17207.06640625	21104.705078125	10285.03515625	9501.5185546875	21043.623046875	20614.619140625	22262.388671875	21966.640625	18815.85546875	16946.53125	21508.83203125	15194.8818359375	17013.888671875	18780.525390625	18692.14453125	14536.693359375	18998.251953125	20149.947265625	11882.3427734375	20462.015625	17881.96484375	16897.119140625	22678.255859375	20095.65234375	21679.140625	20108.962890625	21465.810546875	19445.376953125	19890.162109375	24633.17578125	21116.21875	21333.818359375	20271.9140625	22052.224609375	29554.646484375	22980.767578125	24128.791015625	19757.859375	19987.251953125	19457.419921875	22151.8125	20625.9375	17585.958984375	17116.044921875	21637.908203125	15375.7880859375	18326.15234375	19665.47265625	16936.078125	16908.16015625	19112.591796875	17696.373046875	13834.4912109375	19946.869140625	17763.052734375	17676.751953125	22057.669921875	17150.72265625	19734.228515625	22691.71875	21609.90625	19400.611328125	19528.466796875	22973.5703125	20749.103515625	21126.3828125	18214.67578125	20035.951171875	28288.53515625	22176.4453125	18444.625	18152.681640625
1500	1800	18246.052734375	20449.42578125	13878.5302734375	18920.15234375	13980.17578125	17153.30859375	23341.7578125	14601.7998046875	14672.345703125	15532.82421875	3444.91650390625	11613.4296875	19655.302734375	14428.1328125	17763.337890625	20994.45703125	13267.658203125	20029.373046875	14293.8046875	16539.482421875	23791.962890625	15031.1787109375	16612.669921875	14219.4677734375	20271.263671875	15932.86328125	2760.680908203125	12702.982421875	13198.1904296875	19448.404296875	8931.234375	9325.779296875	17661.185546875	17062.615234375	16343.3291015625	16022.5224609375	15667.537109375	13836.4931640625	17027.79296875	12610.1669921875	13351.6689453125	14919.8916015625	15424.998046875	11812.57421875	14364.9169921875	15736.732421875	10307.0654296875	14840.634765625	13706.8876953125	13882.63671875	17863.625	13136.2587890625	16436.7421875	16605.96875	16970.46875	15006.2822265625	16665.95703125	19142.998046875	15598.5908203125	15798.5830078125	14950.134765625	17294.287109375	24023.185546875	18099.40234375	19352.58984375	15285.4658203125	15143.9150390625	15857.5234375	17512.501953125	15980.8671875	13210.435546875	14436.009765625	16946.44140625	13223.5849609375	14346.107421875	16339.9501953125	13887.6689453125	13509.984375	15330.3623046875	13642.1728515625	11319.45703125	14529.8798828125	13861.220703125	14629.0869140625	17948.052734375	13563.5732421875	15596.6103515625	17286.966796875	16552.10546875	14758.013671875	16691.56640625	18145.150390625	15316.7099609375	15465.7333984375	13406.53125	15846.25390625	23692.58984375	17984.09375	13183.0439453125	14892.830078125
1800	2100	17016.955078125	19162.193359375	11095.2197265625	15199.859375	10732.3203125	14318.96484375	20200.3515625	12156.5908203125	12419.978515625	13345.6181640625	3599.802978515625	8921.669921875	17189.748046875	6113.39013671875	16661.2578125	18637.451171875	10755.236328125	15940.4609375	10680.380859375	13139.4375	21451.22265625	13177.5	12134.9951171875	7863.55322265625	17961.109375	11554.107421875	2585.933349609375	12393.6201171875	11194.3173828125	17521.21875	8317.390625	9104.3994140625	12916.9384765625	14190.0078125	11912.9736328125	12933.0712890625	11754.0908203125	11344.3935546875	13545.7451171875	11165.775390625	11112.373046875	12071.072265625	13338.015625	9065.3095703125	11228.5390625	11977.53125	8678.6552734375	11960.671875	11895.3271484375	11331.04296875	14090.73828125	10573.8466796875	12161.482421875	12585.8876953125	12715.9716796875	12076.2841796875	12705.7607421875	15337.453125	11605.142578125	11673.84765625	11541.8369140625	13950.947265625	20482.931640625	14438.197265625	17083.677734375	12603.0263671875	12343.1787109375	12630.818359375	12796.38671875	12846.9892578125	11166.615234375	12354.28125	13827.1357421875	11382.9443359375	12236.1171875	13343.3125	11927.1396484375	11170.5771484375	12083.4765625	10674.5458984375	8952.34765625	10546.7138671875	11509.6240234375	12169.66796875	13521.88671875	9992.2060546875	12396.5322265625	14095.2099609375	12451.9794921875	10927.158203125	14977.0625	14877.2294921875	11524.13671875	11109.0263671875	10443.78125	12818.5478515625	18421.88671875	14124.798828125	11050.498046875	11488.947265625
2100	2400	15716.291015625	17543.30859375	8757.2978515625	12168.494140625	8892.7333984375	11150.5693359375	17693.06640625	10575.6376953125	10247.3916015625	10285.5322265625	3784.592529296875	6746.76318359375	13876.849609375	2565.97900390625	15459.9326171875	16988.36328125	8588.6591796875	12586.48828125	7527.5078125	10313.91015625	16214.755859375	10905.71875	9472.708984375	5757.76171875	15202.142578125	7129.59375	2344.677001953125	12000.125	8497.39453125	15093.4384765625	7947.44873046875	8862.765625	11031.404296875	11255.3095703125	9302.3173828125	9767.775390625	9410.4814453125	9914.78515625	11547.2978515625	8446.66015625	8691.9111328125	10077.029296875	10828.259765625	8224.2265625	9662.2724609375	9949.83203125	6576.46826171875	9872.529296875	8950.5927734375	8174.19775390625	11099.052734375	9109.92578125	9601.8564453125	10573.884765625	9924.3935546875	9765.6201171875	11938.326171875	12156.22265625	9214.9033203125	9274.6826171875	8718.732421875	11660.9560546875	17151.931640625	10747.4453125	13283.869140625	9792.6484375	9788.400390625	7564.94677734375	10228.19140625	10007.3134765625	10388.2412109375	9547.6455078125	11537.8935546875	9402.060546875	9780.6875	10984.52734375	9933.822265625	8978.216796875	9056.7548828125	8738.3720703125	7484.630859375	8005.615234375	9452.85546875	10019.5107421875	10971.6875	8068.7626953125	9952.16796875	10677.0498046875	10179.0546875	9475.2919921875	10011.7900390625	12101.046875	8504.22265625	8641.912109375	7789.6220703125	10479.6787109375	16634.046875	10754.107421875	7094.8056640625	9285.728515625
2400	2700	14538.8232421875	15715.0048828125	7388.54638671875	10065.810546875	6696.7265625	8902.2333984375	15919.5302734375	8458.7998046875	9261.783203125	9061.0888671875	3559.610107421875	3302.93603515625	12282.96484375	345.2071228027344	14279.994140625	15417.046875	7316.92822265625	10451.5859375	5999.73046875	8410.2744140625	14676.1826171875	9371.4775390625	8406.044921875	5059.7275390625	13049.552734375	8907.189453125	2003.6446533203125	11535.87109375	7820.52294921875	13694.787109375	7728.00927734375	8671.623046875	8580.7255859375	9734.9814453125	7308.04736328125	8052.33251953125	8372.625	8410.73046875	9949.021484375	6591.7451171875	7256.43603515625	8247.4296875	9142.0107421875	6546.3740234375	7759.8779296875	8349.17578125	5478.54345703125	7595.06396484375	8371.6240234375	7472.279296875	9165.703125	7278.72607421875	7827.67431640625	8870.1689453125	7950.65673828125	8075.9599609375	9887.8896484375	9908.7685546875	7266.9873046875	7807.26171875	7136.89794921875	10068.2568359375	13905.7255859375	8712.7099609375	9781.9384765625	7692.8740234375	8127.45654296875	7844.93017578125	8636.4921875	9338.3681640625	7262.29931640625	8481.6591796875	10440.779296875	7937.9140625	7817.14599609375	9546.94921875	8698.6416015625	7339.724609375	6425.24267578125	6893.384765625	6742.70703125	6040.87451171875	7662.31103515625	8299.7099609375	9207.6923828125	6139.18408203125	8238.478515625	10416.2197265625	8110.70166015625	7365.5322265625	9742.935546875	9716.986328125	6293.12353515625	7261.50048828125	6605.4130859375	8916.26953125	13971.87890625	8982.4111328125	7408.88427734375	7365.48486328125
