frame_start	frame_end	Left-Cerebral-White-Matter	Left-Cerebellum-White-Matter	Left-Cerebellum-Cortex	Left-Thalamus	Left-Caudate	Left-Putamen	Left-Pallidum	Brain-Stem	Left-Hippocampus	Left-Amygdala	CSF	Left-Accumbens-area	Left-VentralDC	Left-choroid-plexus	Right-Cerebral-White-Matter	Right-Cerebellum-White-Matter	Right-Cerebellum-Cortex	Right-Thalamus	Right-Caudate	Right-Putamen	Right-Pallidum	Right-Hippocampus	Right-Amygdala	Right-Accumbens-area	Right-VentralDC	Right-choroid-plexus	AirCavity	Skull	Vermis	Pons	CSF-ExtraCerebral	Head-ExtraCerebral	ctx-lh-bankssts	ctx-lh-caudalanteriorcingulate	ctx-lh-caudalmiddlefrontal	ctx-lh-cuneus	ctx-lh-entorhinal	ctx-lh-fusiform	ctx-lh-inferiorparietal	ctx-lh-inferiortemporal	ctx-lh-isthmuscingulate	ctx-lh-lateraloccipital	ctx-lh-lateralorbitofrontal	ctx-lh-lingual	ctx-lh-medialorbitofrontal	ctx-lh-middletemporal	ctx-lh-parahippocampal	ctx-lh-paracentral	ctx-lh-parsopercularis	ctx-lh-parsorbitalis	ctx-lh-parstriangularis	ctx-lh-pericalcarine	ctx-lh-postcentral	ctx-lh-posteriorcingulate	ctx-lh-precentral	ctx-lh-precuneus	ctx-lh-rostralanteriorcingulate	ctx-lh-rostralmiddlefrontal	ctx-lh-superiorfrontal	ctx-lh-superiorparietal	ctx-lh-superiortemporal	ctx-lh-supramarginal	ctx-lh-frontalpole	ctx-lh-temporalpole	ctx-lh-transversetemporal	ctx-lh-insula	ctx-rh-bankssts	ctx-rh-caudalanteriorcingulate	ctx-rh-caudalmiddlefrontal	ctx-rh-cuneus	ctx-rh-entorhinal	ctx-rh-fusiform	ctx-rh-inferiorparietal	ctx-rh-inferiortemporal	ctx-rh-isthmuscingulate	ctx-rh-lateraloccipital	ctx-rh-lateralorbitofrontal	ctx-rh-lingual	ctx-rh-medialorbitofrontal	ctx-rh-middletemporal	ctx-rh-parahippocampal	ctx-rh-paracentral	ctx-rh-parsopercularis	ctx-rh-parsorbitalis	ctx-rh-parstriangularis	ctx-rh-pericalcarine	ctx-rh-postcentral	ctx-rh-posteriorcingulate	ctx-rh-precentral	ctx-rh-precuneus	ctx-rh-rostralanteriorcingulate	ctx-rh-rostralmiddlefrontal	ctx-rh-superiorfrontal	ctx-rh-superiorparietal	ctx-rh-superiortemporal	ctx-rh-supramarginal	ctx-rh-frontalpole	ctx-rh-temporalpole	ctx-rh-transversetemporal	ctx-rh-insula
0	30	1259.238525390625	1192.62158203125	942.2571411132812	1439.152587890625	1281.5364990234375	1922.5552978515625	1855.4769287109375	1081.4205322265625	1378.648193359375	2867.75537109375	1459.8924560546875	3202.28515625	1896.74072265625	1180.233642578125	1208.232421875	1063.509521484375	762.4515991210938	1392.6171875	1269.4681396484375	1720.80322265625	1978.7598876953125	1109.9896240234375	1403.366455078125	2819.6328125	2006.540283203125	1199.75927734375	278.7669372558594	757.8406982421875	1198.202880859375	1026.951904296875	1486.5858154296875	343.73541259765625	1080.146484375	1007.5880126953125	1139.9095458984375	1882.813232421875	2067.48486328125	1052.03515625	1475.355224609375	707.7049560546875	1575.8997802734375	1377.6138916015625	1340.828125	1365.99609375	1601.18310546875	1014.1531982421875	677.751953125	1447.5264892578125	1904.200927734375	818.4345703125	1455.3663330078125	1900.8646240234375	1492.0150146484375	1427.661865234375	1317.5299072265625	1709.9283447265625	2141.98486328125	1423.8863525390625	1562.7999267578125	1331.3931884765625	1297.7496337890625	1846.6812744140625	595.7197265625	612.8106079101562	1027.9591064453125	1900.197998046875	1140.826904296875	768.7732543945312	1281.9254150390625	1794.7745361328125	1290.516845703125	959.146240234375	1297.729248046875	785.9703369140625	1300.8548583984375	1119.7752685546875	1201.3193359375	1182.0816650390625	1796.3775634765625	923.7818603515625	779.94873046875	1710.84765625	2146.903076171875	571.8860473632812	1511.8363037109375	1182.0001220703125	1495.8294677734375	1830.5838623046875	1318.1734619140625	1691.8319091796875	2170.948974609375	1343.64111328125	1537.5904541015625	1419.1182861328125	1223.2987060546875	1884.360595703125	830.7255249023438	521.8154296875	1797.06689453125	1813.7454833984375
30	60	11237.8232421875	11988.0654296875	8922.3310546875	12755.310546875	12906.0048828125	13613.4150390625	13096.060546875	8491.6923828125	11197.2763671875	14819.7275390625	12191.9638671875	13298.1123046875	10436.9443359375	12193.0986328125	11042.1572265625	10717.62890625	8189.4365234375	13276.904296875	11977.625	12750.4052734375	11682.34765625	11240.421875	11061.6748046875	14816.654296875	12579.44921875	13004.71484375	2309.44677734375	5634.91455078125	12933.525390625	8465.17578125	12706.5283203125	2728.18115234375	10720.0380859375	8175.38037109375	11167.4755859375	17768.65625	13362.591796875	9103.515625	12649.99609375	7219.64501953125	11719.875	13546.72265625	8290.42578125	13314.9404296875	11908.525390625	9889.4599609375	6762.1435546875	13735.8134765625	14115.5859375	5904.79345703125	12991.4375	17181.259765625	12529.7861328125	10468.017578125	12514.3212890625	15237.9228515625	16644.822265625	13861.943359375	13616.203125	12532.451171875	12058.3154296875	15021.9521484375	5179.01416015625	5332.94091796875	10400.2548828125	13380.6318359375	10967.2763671875	6931.8935546875	12365.515625	18017.990234375	8851.3173828125	9196.16796875	13044.5908203125	7174.201171875	12908.638671875	12318.021484375	8684.466796875	12415.5634765625	13083.970703125	8916.03125	7461.39404296875	14271.7890625	14305.9423828125	5094.76708984375	13057.6748046875	15118.4033203125	13288.8896484375	11987.8544921875	11661.12109375	16066.5400390625	12712.4912109375	13088.9267578125	13459.021484375	12030.412109375	10770.4912109375	14160.6083984375	6460.6220703125	5521.84423828125	13174.09765625	13523.2490234375
60	90	24380.3203125	25917.421875	19205.7578125	27735.708984375	27173.119140625	29075.423828125	26058.07421875	18221.013671875	23772.716796875	29394.365234375	27045.37109375	29530.21484375	20424.33203125	28284.15234375	24105.74609375	25268.853515625	18332.140625	27852.744140625	27841.689453125	27990.669921875	26173.673828125	24757.205078125	25305.34375	28869.6484375	21501.890625	29696.79296875	5347.99853515625	11895.30078125	27511.470703125	16266.0849609375	27354.142578125	5708.3583984375	24198.1171875	15309.75390625	24964.970703125	38149.46875	22327.208984375	19289.62890625	27549.146484375	13926.6865234375	24380.94140625	28518.916015625	15636.765625	29696.2421875	24099.337890625	22461.71484375	14877.197265625	29851.3125	29791.76953125	11654.818359375	28686.248046875	37093.34375	29485.720703125	21947.501953125	28162.556640625	33049.7578125	33542.37890625	30238.4140625	29503.94140625	28151.419921875	25950.669921875	32222.126953125	11524.2880859375	11185.1103515625	23601.18359375	25375.732421875	25863.912109375	12174.0283203125	28047.3046875	38187.859375	19743.5625	19690.603515625	28891.623046875	15366.640625	24671.3203125	27946.041015625	17162.048828125	26806.880859375	26371.681640625	20113.072265625	15524.345703125	31402.1953125	28885.181640625	10496.3818359375	29652.521484375	32891.625	29549.9375	21956.552734375	26103.953125	34171.7109375	25778.15234375	28234.5390625	29061.3046875	26873.46484375	24036.623046875	30791.173828125	13550.279296875	12833.6337890625	24761.822265625	26722.125
90	120	38117.0	39673.4453125	29684.11328125	44077.68359375	44407.29296875	45507.5703125	39176.57421875	27232.982421875	36241.24609375	37778.6015625	41590.875	39854.15234375	30735.779296875	45727.88671875	37531.99609375	39295.765625	28325.451171875	43139.7890625	43990.63671875	43566.94921875	37020.37109375	38645.265625	37487.90625	41885.16796875	32732.197265625	46360.66015625	8063.79345703125	17931.798828125	44871.90625	23385.2578125	42220.39453125	8457.9345703125	38472.25	22933.01171875	40950.9375	58684.953125	30138.810546875	30132.0390625	44214.484375	20780.15234375	35192.01171875	44244.06640625	23677.865234375	47259.25390625	38284.734375	34497.8046875	23602.392578125	47233.10546875	45061.5703125	17087.046875	45450.46875	57502.15625	45747.6640625	32753.384765625	44599.06640625	51822.7109375	48440.7421875	47920.2578125	45845.58984375	44698.015625	41031.2109375	49918.89453125	17317.37109375	17590.626953125	36000.9296875	39218.515625	40976.28125	18462.458984375	43301.01171875	59578.9609375	25992.318359375	30464.740234375	44927.44140625	23527.939453125	36530.71484375	42848.48046875	25696.837890625	43203.29296875	40284.67578125	31107.009765625	24513.896484375	49885.140625	44581.44921875	17598.193359375	46156.3984375	51075.43359375	45059.84375	35950.70703125	41726.578125	52556.79296875	39709.72265625	44746.421875	45445.88671875	42469.21484375	37816.80078125	48238.9375	20370.119140625	18745.017578125	39281.609375	39054.66796875
120	150	42602.203125	46102.27734375	34020.74609375	49172.12109375	47970.81640625	48992.6953125	40616.18359375	30191.28515625	40838.42578125	41136.40234375	46813.11328125	39213.52734375	31221.51171875	52414.22265625	42148.54296875	44911.515625	32661.296875	49088.63671875	49863.21484375	48620.91015625	42956.4140625	42470.68359375	42339.50390625	42556.796875	32341.44921875	52570.51171875	8732.666015625	19536.609375	51389.53515625	25939.228515625	46948.98046875	9391.798828125	43133.171875	26093.76953125	47313.91015625	66036.03125	27474.703125	33638.96484375	50774.5703125	22466.763671875	36808.6796875	48908.54296875	24596.90234375	52984.72265625	40632.921875	39498.953125	25938.50390625	51342.51953125	47998.703125	19622.333984375	51570.65234375	65354.34765625	51414.10546875	34966.0078125	49792.359375	59300.5625	55442.3046875	53847.50390625	52218.27734375	50780.7578125	46152.84765625	55486.64453125	20181.626953125	21510.08203125	41781.2265625	41052.1640625	47637.8359375	21117.697265625	50024.04296875	65377.6640625	26528.0078125	34013.98828125	51189.5703125	24740.48828125	40626.74609375	48728.06640625	26761.830078125	48727.6015625	45071.55859375	35110.40625	27034.853515625	56755.28125	47524.04296875	20396.103515625	51963.3671875	56138.53515625	50970.3359375	36585.00390625	45831.765625	59866.34765625	41247.484375	50850.515625	50582.5703125	47528.80078125	43020.37109375	52341.96875	24114.052734375	24086.1328125	42122.2578125	41774.16015625
150	180	41978.875	44683.421875	33941.4453125	49799.70703125	49069.69921875	48696.640625	39347.4140625	29515.73046875	39447.45703125	37198.2890625	46446.2109375	38551.20703125	28667.095703125	52202.87890625	41768.7109375	44408.75390625	32714.5625	49581.8515625	50032.3359375	48598.71875	40188.99609375	42463.74609375	40642.28515625	42583.75390625	30854.802734375	50761.4375	8706.46875	19169.517578125	51152.37109375	24411.201171875	45963.05078125	9323.7705078125	42948.29296875	25953.298828125	47282.67578125	64241.37890625	26981.669921875	33164.6484375	49541.3984375	21301.517578125	34707.9296875	46730.90234375	23522.8203125	50738.54296875	40702.30078125	39120.7109375	24986.6328125	50882.046875	47112.7734375	20043.072265625	51498.5390625	62443.26953125	51193.57421875	35860.81640625	48555.99609375	56991.31640625	55452.0859375	52516.10546875	51538.7578125	50342.19921875	46659.48046875	55021.4921875	18894.322265625	20705.35546875	41036.38671875	40964.046875	47541.2265625	21025.986328125	50062.53125	65139.3515625	27053.900390625	34442.8828125	51175.37890625	23826.708984375	39745.75390625	47910.73828125	25162.361328125	48379.73828125	42938.140625	34084.9921875	26219.880859375	56079.55859375	46185.84375	19981.31640625	49842.91796875	55695.71875	50942.59375	37160.39453125	45731.7890625	58603.6640625	42861.07421875	50500.015625	49915.23828125	47374.25	42563.62890625	51879.9296875	22503.224609375	23673.162109375	42944.5625	40189.31640625
180	240	40352.00390625	44731.06640625	32977.4140625	48362.08984375	48315.73828125	47550.27734375	39278.6484375	29083.046875	38182.73828125	37134.0546875	44571.04296875	39795.390625	29040.580078125	50234.37109375	39958.22265625	42889.71875	31790.802734375	47345.26171875	48443.6015625	46036.4921875	40422.50390625	41011.94921875	39505.26953125	38217.9765625	30872.39453125	47499.21484375	8210.5126953125	18606.103515625	48966.76953125	24246.140625	43656.24609375	9237.703125	41679.0	26489.087890625	44775.3203125	59225.5703125	25772.7734375	32069.548828125	47354.02734375	20212.955078125	34219.30078125	44503.05859375	23282.49609375	49435.02734375	38938.34765625	38404.18359375	26024.806640625	48665.984375	44554.109375	19832.99609375	48089.9765625	59745.98046875	48312.51953125	32374.53125	46740.01953125	53728.7421875	52179.890625	50644.42578125	48549.6484375	47545.51953125	44468.9765625	52462.41796875	18957.314453125	20049.689453125	39414.41015625	39150.9453125	45149.39453125	21066.341796875	47464.95703125	59647.09765625	23441.64453125	32712.111328125	49164.98828125	23480.96875	37681.6875	45119.13671875	25121.248046875	45522.3203125	41522.77734375	33785.3828125	26221.671875	53659.4453125	43432.53515625	19071.96875	47579.3828125	51843.546875	47912.64453125	35257.62109375	43822.84765625	54497.453125	40637.03125	47759.80078125	47443.0390625	45732.38671875	41333.83984375	50280.2421875	21639.837890625	22898.4765625	40643.94921875	40283.8671875
240	300	37809.6328125	42020.75390625	31736.66015625	46429.94921875	45375.4609375	45169.96875	37553.8125	28090.66796875	36465.3125	37312.203125	41383.4296875	35802.609375	28085.3203125	47302.89453125	37114.5	40436.16015625	30476.99609375	46670.015625	45538.19140625	43649.03515625	37412.61328125	39116.28515625	38415.73046875	36075.30859375	28433.1640625	46598.796875	7418.36279296875	17455.123046875	44680.9765625	24445.12109375	40412.671875	9068.560546875	40799.97265625	25506.4375	41529.11328125	54286.03515625	25789.279296875	30503.56640625	44729.109375	19964.87890625	32103.4609375	41116.59765625	21639.353515625	44858.89453125	36005.87109375	36466.58984375	24795.61328125	45370.5390625	42055.2578125	19400.716796875	44298.51171875	54327.94921875	45029.51953125	30771.46875	43701.33203125	48936.4609375	47560.1640625	46706.48828125	45384.4921875	45473.58203125	42065.1328125	48720.4921875	18404.03515625	22490.05859375	39631.13671875	37314.265625	41419.66796875	20841.15234375	43602.37109375	54694.01953125	21937.185546875	31107.958984375	45772.5078125	21807.71875	35234.1015625	41358.109375	23615.318359375	42303.234375	39034.19140625	32328.21484375	24413.939453125	47729.296875	40975.99609375	17746.255859375	43857.23828125	48009.4140625	44314.96484375	32043.44140625	40019.14453125	50072.12890625	40005.41015625	43746.0546875	44173.3828125	42601.15625	39200.1640625	45405.87890625	20826.958984375	23056.330078125	37482.31640625	37094.0234375
300	360	35200.24609375	40604.36328125	30485.181640625	44871.3046875	42237.26171875	42133.13671875	34076.73046875	26739.193359375	34214.82421875	35764.5625	36971.2734375	31911.642578125	26713.767578125	43235.796875	34467.26953125	37931.29296875	29151.93359375	44909.49609375	42400.39453125	41809.6640625	35285.2421875	35613.09765625	36431.71875	30517.01953125	26852.302734375	42850.90234375	7137.9443359375	16466.0078125	41876.796875	23657.7578125	37118.28125	8898.3671875	37746.8203125	24540.783203125	39767.36328125	49196.4609375	24949.7109375	29026.65234375	41763.8125	19626.958984375	30390.23828125	37624.92578125	20727.005859375	41038.83984375	33531.1640625	33671.62109375	23174.095703125	43100.37109375	37826.48046875	18431.328125	41159.421875	48266.94921875	41645.75390625	29826.7890625	39744.53515625	44950.578125	43440.46484375	43009.50390625	41995.484375	41665.30859375	38814.63671875	44313.0859375	19001.9453125	23264.38671875	35839.6328125	35399.703125	38379.44921875	21263.4375	41019.4609375	48600.03125	21163.662109375	29307.755859375	41707.828125	21249.34765625	32759.16015625	39034.01171875	22813.203125	37845.98828125	36422.21484375	30778.021484375	23805.03125	43766.8046875	38213.76171875	18020.3359375	40748.00390625	42641.35546875	40754.83203125	31872.26171875	37360.65625	46179.78125	37193.55859375	40615.859375	40732.796875	39235.5390625	36923.15625	41046.23828125	22465.533203125	21422.130859375	34997.26171875	35222.27734375
360	480	31888.330078125	36117.0703125	28445.193359375	42236.75390625	38617.9609375	39353.24609375	33298.36328125	24836.34375	32498.498046875	33657.77734375	32166.86328125	30713.154296875	25537.845703125	39278.01953125	31347.392578125	34891.39453125	27461.134765625	42623.40234375	37598.328125	38878.74609375	34271.23828125	33321.5	34066.3515625	29599.548828125	25606.248046875	38956.421875	6841.525390625	15184.2509765625	37506.984375	22989.443359375	32960.19921875	8776.0517578125	33594.65234375	24815.15234375	36738.59375	41167.28515625	24222.95703125	26790.916015625	37737.53125	19472.265625	27155.318359375	32890.15234375	21085.90625	36018.73046875	31247.380859375	31327.33203125	22255.82421875	37969.8671875	34169.73046875	19369.04296875	36337.48828125	41422.50390625	37138.3828125	27813.84375	36410.34375	39139.33984375	38419.69921875	38912.18359375	37445.8515625	37461.26953125	35350.5390625	39286.05078125	21417.365234375	23734.6640625	33466.81640625	32979.4609375	35750.03515625	21355.115234375	36531.7109375	41528.19921875	20439.427734375	27243.333984375	37583.87890625	20784.978515625	30074.880859375	34285.70703125	22160.740234375	33724.33984375	33240.08984375	28751.509765625	22667.7265625	39002.84765625	33980.859375	18602.529296875	36054.16015625	37246.26953125	36510.50390625	28558.240234375	34212.3203125	39605.7109375	33940.47265625	36329.32421875	36920.05078125	35904.29296875	33741.3203125	36436.41796875	22793.41015625	21965.802734375	31916.669921875	32343.22265625
480	600	28554.931640625	32105.833984375	26284.15625	38334.4375	34157.42578125	35832.95703125	31125.9765625	24047.306640625	30220.30078125	31435.60546875	26985.986328125	26751.59375	24119.91796875	33890.47265625	27966.005859375	31117.951171875	25426.9453125	38957.40234375	33235.26953125	36521.88671875	32651.677734375	30307.927734375	31515.859375	26510.2734375	24299.283203125	33708.71484375	6580.55126953125	13919.68359375	32697.095703125	22418.099609375	28408.60546875	8673.869140625	31255.0078125	24018.107421875	32948.72265625	34595.1875	24252.775390625	24857.095703125	32658.38671875	19328.763671875	25356.30078125	28135.1484375	21185.453125	30202.26953125	28981.1640625	28497.28515625	20615.89453125	33030.29296875	29712.09765625	19959.43359375	32015.88671875	34568.66796875	32409.87890625	26320.2578125	31803.841796875	33235.7265625	33277.41796875	34318.5625	33328.37109375	32580.306640625	31126.767578125	34140.48828125	22548.572265625	23598.8984375	31133.01171875	29526.42578125	31187.8515625	21357.658203125	32548.59375	35040.32421875	20318.4453125	24698.345703125	32541.26171875	20027.041015625	26815.978515625	29689.91015625	21724.07421875	28958.623046875	29399.7265625	25996.921875	21413.71875	33693.7109375	29319.173828125	18489.634765625	31770.525390625	31400.935546875	31769.73828125	27944.517578125	30042.828125	33535.25390625	29567.1328125	32235.9453125	32486.923828125	30921.02734375	30074.927734375	31401.435546875	24245.23046875	22747.28515625	28387.2734375	29078.15625
600	900	24980.818359375	27495.04296875	23690.455078125	33927.65234375	28060.86328125	31745.052734375	29359.78125	21872.0546875	26131.44921875	26176.76171875	20599.013671875	24689.7265625	23279.484375	26435.060546875	24455.525390625	26739.263671875	23437.31640625	34447.7265625	27265.44140625	31065.72265625	29530.162109375	26827.587890625	27828.365234375	24865.669921875	22986.884765625	27358.544921875	6499.7841796875	12934.619140625	27153.015625	22194.63671875	23356.333984375	8899.8828125	27021.708984375	23807.337890625	28719.197265625	28025.587890625	21270.677734375	21679.537109375	27350.4921875	18858.50390625	22514.265625	23770.162109375	21213.421875	24051.96484375	25385.759765625	24907.67578125	18291.17578125	27120.16015625	25244.17578125	20276.07421875	27604.30859375	27883.578125	27686.111328125	24551.787109375	27305.6015625	27723.43359375	27957.720703125	29327.943359375	27927.953125	27397.25	27023.923828125	28397.712890625	23381.146484375	23932.998046875	26837.640625	26088.833984375	26660.234375	21659.8125	28334.625	27774.62109375	19653.896484375	22260.515625	27096.080078125	19476.390625	23545.748046875	24734.873046875	20955.73828125	23551.376953125	26126.173828125	23214.984375	19517.740234375	27916.556640625	24833.015625	19310.15234375	26679.662109375	25327.392578125	26119.4375	25729.40625	26358.37109375	27248.1328125	25299.931640625	27670.28125	27575.998046875	26239.236328125	25606.130859375	26295.330078125	24276.775390625	22934.31640625	25664.33984375	25608.7890625
900	1200	21698.560546875	23439.064453125	20173.646484375	27548.6171875	21179.646484375	26395.26953125	26926.08984375	19151.8203125	21649.783203125	22580.095703125	15026.8828125	21803.267578125	21732.580078125	19101.478515625	21207.435546875	22873.27734375	19813.443359375	28428.224609375	21264.279296875	25733.556640625	27251.638671875	22063.671875	23455.107421875	22328.05859375	22363.486328125	19932.25	6321.89990234375	12267.814453125	21071.15234375	21822.75390625	18371.4453125	9104.1572265625	22701.4921875	21166.7109375	23505.466796875	22192.08984375	19347.140625	18895.681640625	22368.890625	17702.41015625	19605.580078125	19931.2890625	19515.255859375	18844.66796875	21003.658203125	21285.728515625	16350.3505859375	21557.4375	20544.3671875	18983.697265625	22499.841796875	22420.095703125	22293.1953125	22024.44140625	22438.77734375	21685.55859375	21842.6015625	24119.962890625	22619.19140625	21997.5703125	22094.345703125	22530.60546875	22330.373046875	21985.765625	22993.986328125	21395.4609375	22207.865234375	20840.783203125	22911.02734375	21982.318359375	17474.646484375	18925.689453125	21644.341796875	17600.173828125	20008.875	20308.609375	18776.578125	19141.232421875	21076.927734375	19623.279296875	16866.35546875	21868.53125	20542.306640625	18047.232421875	21789.857421875	20709.869140625	21080.08203125	22780.900390625	21705.82421875	21479.66015625	22028.8046875	22696.720703125	22143.400390625	21401.005859375	20788.0	21162.552734375	22162.2578125	21643.2421875	21113.107421875	21062.033203125
1200	1500	19174.1953125	20461.142578125	16941.412109375	22493.9921875	17151.318359375	21672.123046875	23302.857421875	16840.34765625	18264.2265625	18405.21875	11825.4619140625	17992.310546875	19675.255859375	15302.197265625	18892.927734375	20420.279296875	16544.62109375	22723.029296875	16384.05859375	21195.001953125	24055.4140625	18587.744140625	18958.111328125	19145.4296875	20319.83203125	15748.4736328125	6206.66162109375	11876.6240234375	16442.720703125	20035.064453125	14906.99609375	9059.486328125	19255.375	18406.05078125	18736.2265625	18157.46875	16639.205078125	16022.2509765625	18137.681640625	15573.953125	16758.20703125	17054.072265625	17005.34375	15421.2626953125	17314.609375	17901.396484375	14199.3603515625	17724.5625	17198.65625	16326.3837890625	18462.251953125	18359.15625	18078.69140625	18797.34375	18309.505859375	17740.208984375	17850.517578125	19726.94921875	18249.408203125	17702.689453125	18198.55859375	18719.314453125	19196.21484375	18592.583984375	19452.435546875	18034.12890625	18305.998046875	17962.7109375	18236.865234375	17578.71875	16018.0771484375	16385.390625	17882.978515625	15600.03125	17103.1015625	17178.3046875	16404.5859375	16206.3125	17246.18359375	16744.966796875	14960.244140625	17621.076171875	16956.900390625	16170.9560546875	18376.888671875	16891.853515625	17100.677734375	19452.87109375	18150.62109375	17520.158203125	17879.6796875	18819.91796875	18053.658203125	17515.064453125	16790.88671875	17470.3125	19043.294921875	17868.384765625	16813.9609375	17260.107421875
1500	1800	17160.640625	18163.15234375	13901.689453125	17593.1875	12999.48046875	17564.30078125	20580.0390625	14542.89453125	15135.0380859375	15165.3291015625	10041.462890625	15009.21875	17732.66796875	12630.6572265625	16790.404296875	18457.931640625	13579.587890625	18483.001953125	13154.6015625	17259.638671875	20610.2265625	15466.91796875	15712.505859375	15365.47265625	18063.515625	13157.73046875	5984.287109375	11528.1201171875	13302.689453125	18346.7890625	12534.2197265625	8905.1005859375	16579.71875	15625.8203125	15331.7939453125	14757.458984375	14267.4140625	13779.361328125	15252.6484375	13671.2822265625	14177.7900390625	14687.80078125	14813.9287109375	13354.2021484375	14339.826171875	15061.6201171875	12500.953125	14516.533203125	14499.310546875	14430.9453125	15684.6650390625	14831.283203125	15175.646484375	15853.083984375	15526.17578125	14807.671875	15176.88671875	16539.126953125	14994.859375	14618.103515625	14958.1494140625	15694.6025390625	16139.365234375	15400.4150390625	16273.69140625	15032.1162109375	14997.775390625	15206.025390625	15261.7783203125	14666.1591796875	13416.443359375	14311.525390625	14896.38671875	13764.650390625	14326.8642578125	14885.990234375	14265.0771484375	13778.546875	14563.1328125	13957.6123046875	12898.33984375	14349.412109375	14172.6318359375	14117.09765625	15749.8310546875	14500.388671875	14407.1572265625	15873.33203125	15067.259765625	14478.5439453125	15363.9462890625	15818.9853515625	14726.6513671875	14361.8388671875	13693.8984375	14587.0078125	16303.431640625	15148.5439453125	13593.27734375	14696.2646484375
1800	2100	15415.9248046875	16573.224609375	11563.205078125	14503.0546875	11034.80859375	15277.4228515625	18074.228515625	12565.7763671875	13081.541015625	13189.5830078125	8993.3505859375	12621.16015625	15583.390625	10360.609375	15132.4560546875	16180.5478515625	11337.7197265625	15158.767578125	10892.9462890625	14623.2646484375	18410.54296875	13514.47265625	12673.8935546875	11971.3037109375	15979.8916015625	11186.494140625	5736.654296875	11140.6435546875	11281.4345703125	16467.5234375	10914.5126953125	8696.9794921875	13624.5830078125	13212.5419921875	12780.6826171875	12822.5458984375	11880.099609375	11973.89453125	13006.66796875	12321.7705078125	12440.9384765625	12860.1005859375	13285.82421875	11482.640625	12236.728515625	12632.11328125	10989.478515625	12557.20703125	12901.5634765625	12697.3369140625	13502.3681640625	13112.2109375	12836.2822265625	13230.2138671875	13114.6025390625	12739.21875	12513.9306640625	14195.736328125	12576.6015625	12317.6123046875	12653.1982421875	13443.8740234375	14124.369140625	12954.29296875	14333.35546875	13003.91015625	12937.1943359375	13153.4853515625	12542.8935546875	12673.05859375	12191.427734375	12658.169921875	12843.697265625	12322.26953125	12549.9345703125	13004.2431640625	12800.1923828125	12046.9638671875	12298.1484375	11912.544921875	11185.58984375	12221.3955078125	12426.6328125	12357.6455078125	13225.8505859375	12393.8720703125	12387.08203125	13545.90234375	12725.587890625	12124.16015625	13556.0927734375	13728.5810546875	12327.283203125	11987.302734375	11676.1318359375	12559.9033203125	13548.7060546875	12792.2578125	11696.38671875	12415.732421875
2100	2400	13862.619140625	14792.8427734375	9568.62890625	11906.138671875	9679.689453125	12735.0546875	15643.267578125	11108.50390625	11148.91796875	10766.5703125	8175.6640625	11030.185546875	12974.99609375	8953.115234375	13619.345703125	14409.017578125	9414.9716796875	12344.21484375	8962.8134765625	12088.8505859375	14636.1181640625	11520.9326171875	10593.9287109375	9892.6875	13717.3193359375	9517.7822265625	5426.40283203125	10723.921875	9198.4296875	14339.517578125	9697.39453125	8460.3720703125	12012.150390625	11400.5439453125	11041.2236328125	10962.759765625	10303.2509765625	10617.4013671875	11551.7822265625	10484.6611328125	10759.5224609375	11453.08984375	11554.6884765625	10476.5498046875	10864.720703125	11087.59375	9498.3896484375	11147.416015625	10941.423828125	10828.0849609375	11656.693359375	11777.1005859375	11089.6123046875	11459.5302734375	11299.091796875	11031.8544921875	11380.919921875	12167.126953125	10944.1064453125	10761.990234375	10762.76171875	11813.2724609375	12111.5458984375	10778.3173828125	12001.869140625	11051.15625	11231.900390625	10564.0712890625	10900.9833984375	10938.1728515625	11226.111328125	10699.396484375	11303.14453125	10768.400390625	10936.94921875	11446.4345703125	11307.72265625	10464.4697265625	10420.1357421875	10369.8095703125	9870.1162109375	10571.279296875	10826.5361328125	11012.51171875	11653.294921875	10965.5302734375	10824.453125	11328.36328125	11195.0048828125	10826.8388671875	11138.044921875	11963.404296875	10413.103515625	10453.0341796875	9944.4580078125	10980.2685546875	12050.8330078125	10773.1845703125	9551.0439453125	10732.619140625
2400	2700	12555.6484375	13172.736328125	8296.5859375	10020.58984375	8206.30078125	10746.6845703125	13976.7880859375	9423.052734375	10087.78515625	9619.5283203125	7333.86669921875	8732.732421875	11556.966796875	7852.0791015625	12344.96484375	12938.494140625	8249.369140625	10517.1669921875	7820.86767578125	10513.0595703125	13187.896484375	10293.861328125	9525.3818359375	8733.76953125	11952.25390625	9019.41015625	5068.380859375	10294.833984375	8286.1591796875	12952.353515625	8803.31640625	8257.5751953125	10321.7939453125	10157.2373046875	9589.7744140625	9695.619140625	9240.919921875	9368.0419921875	10374.947265625	9153.7783203125	9612.2568359375	10186.3896484375	10376.0107421875	9218.44140625	9421.169921875	9809.3076171875	8579.6962890625	9703.8505859375	9997.4599609375	9978.7119140625	10386.3310546875	10512.4765625	9870.3818359375	10132.185546875	9971.2685546875	9848.2099609375	9958.0576171875	10679.4599609375	9579.361328125	9745.0361328125	9574.7890625	10581.716796875	10411.6259765625	9394.26953125	10094.033203125	9637.34765625	9809.09765625	9800.1650390625	9734.46875	10010.724609375	9457.322265625	9685.4736328125	10378.94921875	9575.4658203125	9582.5068359375	10400.4638671875	10205.3173828125	9254.6298828125	8672.4736328125	9083.6513671875	9085.017578125	9259.62890625	9536.1494140625	9846.423828125	10340.7080078125	9643.37109375	9627.015625	10593.9248046875	9788.16015625	9445.3974609375	10022.654296875	10404.0625	9019.771484375	9391.2607421875	8925.2333984375	9793.734375	10498.0625	9441.5693359375	8930.296875	9457.8251953125
