frame_start	frame_end	parasubiculum	HATA	fimbria	hippocampal_fissure	HP_tail	presubiculum-head	presubiculum-body	subiculum-head	subiculum-body	CA1-head	CA1-body	CA3-head	CA3-body	CA4-head	CA4-body	GC-ML-DG-head	GC-ML-DG-body	molecular_layer_HP-head	molecular_layer_HP-body	Lateral-nucleus	Basal-nucleus	Central-nucleus	Medial-nucleus	Cortical-nucleus	Accessory-Basal-nucleus	Corticoamygdaloid-transitio	Anterior-amygdaloid-area-AAA	Paralaminar-nucleus
0	30	807.9902	1126.20789	1044.23033	873.26681	1921.95283	777.96623	1271.38415	814.55805	981.94811	804.91197	709.37199	1195.49692	864.0557	1024.54854	898.96357	1067.47599	879.3689	834.99181	911.09169	828.96836	1574.894	1242.02354	2294.82098	1808.6252	1085.36095	1503.49606	1231.51546	1742.98579
30	60	10345.686	12615.99946	10267.66084	11259.96124	11911.2841	9041.14395	10722.94799	9141.2946	11386.80414	12035.01752	11581.1376	9808.41605	10020.95269	10319.51788	11136.83118	10492.17859	11082.19863	10778.1872	10963.50501	9861.83519	12466.43421	10244.76413	12483.94792	11585.80198	9914.02479	10353.11923	8775.11979	16177.29099
60	90	16768.75909	24502.3936	23573.03754	24292.83693	27858.63297	17129.39756	22851.59342	19348.79883	25282.35284	24901.41582	26154.68702	25130.28414	23842.87047	23831.89588	25466.61126	23980.65279	25443.27324	23482.48111	25269.14395	24399.32632	26658.94258	24302.81571	26956.39692	26256.14588	23781.0754	23156.19163	18909.79137	28898.75546
90	120	29236.96405	37684.44636	38739.10295	36183.37302	44944.66788	27482.92798	33237.79134	29294.97092	39293.61926	37469.1435	43153.93903	38364.84051	37804.23848	37891.42791	40045.69434	36643.01271	39918.7581	36035.16572	39667.03565	36476.80667	39809.1792	37667.68806	37265.14627	38688.21454	35945.4474	32199.61413	32720.11523	44750.43144
120	150	29086.9076	39948.64724	38228.24551	42358.23475	47835.14268	32236.17217	37514.77245	34316.78239	42757.82952	42668.60377	48378.99242	45124.60699	39665.58043	45130.43871	42174.03382	43891.11778	42469.51129	41970.71355	43194.00552	39306.67376	44398.33375	47728.97754	48881.83594	45902.57317	47167.36499	38097.69266	31627.67331	43303.29067
150	180	22032.60137	41122.90844	41892.41267	40822.54582	44639.21751	27955.27891	34743.02408	33707.75531	44880.13263	43820.0538	48653.18553	43961.66527	44063.57887	42969.56761	45500.15718	42067.78845	45145.59448	41993.23381	44416.33712	40284.66297	41798.73626	43636.22573	48153.97786	49549.939	43512.67738	38748.67194	34567.88535	42855.23948
180	240	23536.09307	41300.21601	42391.72876	39111.57152	43721.74013	28840.12141	35571.01794	32260.95723	41594.24018	41200.18545	45714.16275	44591.0909	41739.71175	42599.49997	43652.47732	41596.79269	43277.57119	40569.64502	42556.68771	40177.52192	38224.78312	46480.25642	45280.96615	45905.15385	42896.27521	36358.64366	35186.15007	39685.76087
240	300	22831.12981	38771.74883	39424.98887	39019.1951	41580.89734	27661.16169	33341.753	31397.04974	40611.03738	39049.74944	43061.00951	42576.66184	39542.79038	41096.40593	41400.04218	39792.89006	41137.70939	38307.44917	40500.45861	38597.14886	37753.32558	43251.06013	45250.06771	45719.18089	42946.26251	35507.2422	29275.38223	35853.01507
300	360	18909.68752	33937.38141	35476.21525	35477.09573	37137.15346	24086.03409	31514.74097	29282.32602	37266.60569	35802.23174	40308.19431	39296.49432	35989.46122	37713.79025	37503.2739	36636.20559	37656.64146	35338.19313	37351.15881	37038.07289	36551.3555	40833.15932	44491.10069	41744.22934	39842.28543	30511.45325	34979.95443	30970.08406
360	480	18417.72977	35583.46414	34647.42987	31796.84074	34744.18842	23344.23265	29894.36973	28461.88036	36147.58572	33005.13629	36130.26106	36155.1565	33345.57283	33980.6202	36076.94463	33110.62932	35665.6735	32617.12549	34699.2285	34886.11159	32453.25032	40039.77051	37954.17535	38555.67458	37643.8104	31468.76373	29464.23939	30087.04427
480	600	20190.02708	30825.03364	30638.8476	29484.31963	31624.24501	23982.34244	26306.77	27864.94015	31952.31656	30183.43515	31939.77392	31775.2557	30241.58681	31354.86373	31706.54751	30556.01445	31290.34414	30372.78385	30522.17209	31984.73337	32042.02511	34152.53564	32979.68837	32806.9502	33577.57912	28071.28272	28086.32409	28258.75065
600	900	20896.85228	24354.69068	27800.33497	26920.20055	27055.00785	24540.70543	23908.57903	27362.56988	28011.22794	26824.56713	27861.48336	26733.37305	26872.85866	27157.24946	28020.07819	26897.57086	27738.38569	27634.19662	27051.16384	28401.08836	28155.96599	28446.90137	27665.03103	28171.78403	29284.6583	24321.2607	26354.5429	26199.18607
900	1200	18815.52663	19590.15431	23569.25645	22763.23971	21521.04132	21669.56693	21587.70409	22167.75123	23330.32187	21440.64842	21887.02218	22226.31383	22694.80664	22566.49243	23666.32379	22190.74114	23344.40726	22288.70915	22715.58712	25387.93021	22952.66014	22724.44155	21427.41558	21001.41008	22698.31109	19653.31642	20839.37402	21355.75729
1200	1500	16364.92503	16906.50147	19620.26276	19019.53156	18891.06293	19006.84649	17536.06911	20121.70799	19404.01116	17810.00216	19019.33012	17956.43388	19578.56431	18554.20911	19438.41593	18365.87957	19331.62132	18707.35477	19147.19391	21081.95358	17796.841	19298.1144	19402.3444	17905.67706	17706.69424	15456.60586	18223.81439	16365.73791
1500	1800	13942.51656	13882.9663	16777.33401	15393.11088	16025.83598	15416.44641	14923.40125	16157.48462	16030.95661	14742.77696	16568.51926	14494.62512	16322.03081	15304.76878	15819.82215	15150.52253	16002.15301	15308.05712	16016.71952	17353.91213	14577.65169	15859.79897	17629.96419	16337.53929	14776.2963	13865.01821	13975.73281	14005.81212
1800	2100	12172.21159	13505.609	15317.33599	13379.13539	13856.0203	13326.42277	13745.27037	13641.33103	14103.70328	12642.3413	14679.57405	13519.42033	15083.75136	13678.89309	13971.10142	13680.52927	14211.41816	13185.84492	14357.51494	13743.90659	11058.01182	14828.19842	16477.41385	15185.93468	12652.1859	12147.7244	11340.01536	10647.91103
2100	2400	9715.98313	10984.56995	13009.20616	11008.24377	12000.82653	11405.51659	11317.10691	12447.10334	11822.23265	10839.23439	12341.3452	11411.36556	13146.95392	10942.92398	11864.1528	11324.40289	11949.96481	11124.36147	12053.77258	11474.12226	9850.213	12026.7514	14691.60938	12470.46405	10270.9062	9553.89148	8337.2258	9359.37586
2400	2700	8023.7397	10411.70192	12847.71958	9808.6283	11189.20859	8734.82561	10514.40433	10196.03006	11223.08385	9674.22219	10804.19049	9505.69228	12692.29452	8806.75159	11582.06055	9262.62883	11442.85818	9484.59147	11204.19794	10479.21996	8239.17238	10536.02651	11508.59418	11550.42263	9213.78392	9374.63655	8977.5993	7451.6864
2700	3000	8825.27717	11377.5594	10301.14301	9723.75394	9135.47561	9608.20902	8862.9446	9552.65566	10190.38191	9677.79098	10520.32003	9582.49226	10740.87253	9028.20849	9934.36414	9494.12685	9983.08388	9487.94285	10001.40418	9127.97321	7570.44937	9788.35798	10793.30632	11323.44148	9336.33155	9371.06041	6444.41255	7370.29915
3000	3300	7261.00177	10187.57437	10339.76154	8551.54243	8424.17993	7871.45747	9202.71777	8116.5158	9196.45215	8510.91185	9424.69062	9122.15212	10616.35687	8205.00553	9642.53011	8445.44966	9678.57571	8257.22085	9622.32587	8077.85266	7065.5755	8705.24372	9645.61003	10254.63229	8430.70779	8814.39819	6989.26629	6426.14068
3300	3600	7181.20059	7685.1464	9157.46401	7116.36992	7723.88265	6869.93086	7472.94713	6859.97254	8338.81468	7014.77565	8523.14007	7752.78545	8912.78548	6717.00765	8113.5393	7090.51642	8184.13683	6822.58822	8067.41431	7035.13384	6733.82035	8353.61768	9541.98318	8891.30148	7222.50335	6762.33511	5704.73631	6269.09746
3600	3900	7325.28544	7485.95127	8145.81188	6672.6208	6440.41875	6498.82832	7095.60797	5545.8593	7786.03773	6676.16415	9454.73155	6762.96456	9247.61775	5852.01319	8311.15011	6784.37315	8408.53546	5977.23661	8514.9288	6229.48363	5220.99958	7619.79626	7976.47092	7935.26854	6221.82278	6495.12489	5531.17054	4998.67457
3900	4200	6117.67186	6831.04423	8536.1567	6764.34347	6812.88458	5287.2912	7010.58605	5145.65626	7804.90777	6333.88643	7423.44476	7941.23549	8767.10417	6172.55545	8365.56586	6225.5209	8311.68362	6059.62473	7900.69117	5511.36445	5053.63196	6398.59687	6949.89578	7928.30953	6641.89884	6833.60334	4532.39248	4817.10617
4200	4500	5309.22616	6929.54234	6471.50352	6015.50982	6670.13337	4696.464	5316.62206	5369.96173	6004.74419	6189.96653	7854.62832	6335.65502	8230.59411	5896.36	6651.10017	6163.69196	6724.37682	5746.94697	6942.66587	4944.3981	4476.5878	6650.33526	6946.60205	6860.41483	5507.38295	5073.86064	3385.22221	3385.19163
4500	4800	4050.4929	6177.65058	6022.70294	5500.19096	5269.50142	4312.38266	5137.18974	5659.96931	5937.18395	5813.90563	7269.21641	5480.30634	6213.17064	5367.19999	5881.24567	5337.76743	5964.21398	5462.16444	5960.20972	5995.00555	4262.08408	6013.80636	6131.83843	6539.3673	5331.67451	5528.3947	4104.27633	4314.10901
4800	5100	4345.02816	6717.51158	6360.37097	4741.01626	5043.82633	4258.70188	4283.15307	4537.69804	5517.45638	5069.44353	6526.82227	6153.01391	7953.34914	5958.79	6052.0789	5822.18954	5984.16811	5170.43119	6087.00932	4083.54049	3234.90246	5502.02354	5920.70578	5914.20192	5723.74321	5429.79284	3215.21573	2545.80459
5100	5400	3520.29693	4647.9773	6923.23274	4273.22066	5121.02396	3487.41703	4729.97855	3679.35974	5872.38995	4594.82712	5586.977	3765.31579	7972.84904	3767.22864	6854.58691	3951.90367	6493.06317	4071.03461	6204.0622	4697.54481	4259.53257	5239.30066	5572.12782	5554.84505	4193.03372	4400.94923	4089.08772	4062.49119
5400	5700	4658.08637	5241.37595	6402.69913	4874.55771	5058.72047	3986.17916	5037.81229	3845.60246	5616.9877	4685.2569	5655.96001	5942.28614	7134.53389	4901.94424	6506.23806	4841.4271	6301.4035	4539.4589	5996.9081	4886.04814	3103.45905	3918.60679	4705.48074	5184.75017	3141.6004	3593.99072	4082.68326	4079.15676
5700	6000	2622.29313	4820.03747	5710.46486	4125.16956	4101.80459	3534.88068	4097.19551	4788.90768	5227.60387	4344.46148	6446.69696	4786.29353	6930.59604	5376.02946	6224.9078	5013.01077	6064.28122	4587.25268	5991.50667	4489.19142	4416.88158	5808.24557	5558.47358	5813.2703	6012.16196	4786.76975	4991.6099	3514.32755
6000	6300	2621.23189	5306.65702	3986.66621	4136.91443	4787.81632	2931.48315	3507.80118	3155.31793	4720.73356	4007.73666	5359.66831	4131.60911	4552.80494	3382.94244	4582.04153	3750.20559	4417.68049	3467.0433	4436.97494	2576.4685	2867.63637	3364.71926	4519.41295	3604.70261	2522.7473	3047.85385	5007.84735	2695.73557
6300	6600	2630.05844	4301.62302	3868.27045	3384.67206	3417.2816	3462.76665	3490.71597	3963.37632	3462.30848	4551.24203	4624.93304	3059.95569	5039.66074	2568.05142	4191.16876	3065.20973	4162.72516	4027.16111	4245.54149	3869.4982	3158.15935	5128.34536	3352.51069	3531.22356	3913.02151	2747.4719	1251.30461	3324.48132
6600	6900	2406.99096	3844.89427	5019.36996	3054.37095	3054.79928	2523.22322	4307.96555	2626.98542	4195.89124	3153.54099	3941.89145	3017.00249	3837.60405	2672.80326	4393.49901	2840.13003	4491.61604	2878.45441	4262.72074	3677.89957	2981.89021	4105.81455	3573.23044	4292.04691	3457.63413	3780.61324	3285.91858	2881.60398
6900	7200	1925.82807	6420.21599	2550.73874	2713.11118	3820.97661	2354.90905	2888.44534	2885.39416	4125.70852	3558.13434	5495.15593	2130.90406	2971.52268	2498.93593	3631.13665	2608.45202	3710.1481	2725.10562	3838.15563	2464.71395	2733.00879	1760.3216	2375.24605	2924.23657	3971.15056	5013.18379	1600.58662	2266.82235
