frame_start	frame_end	Left-Cerebral-White-Matter	Left-Cerebellum-White-Matter	Left-Cerebellum-Cortex	Left-Thalamus	Left-Caudate	Left-Putamen	Left-Pallidum	Brain-Stem	Left-Hippocampus	Left-Amygdala	CSF	Left-Accumbens-area	Left-VentralDC	Left-choroid-plexus	Right-Cerebral-White-Matter	Right-Cerebellum-White-Matter	Right-Cerebellum-Cortex	Right-Thalamus	Right-Caudate	Right-Putamen	Right-Pallidum	Right-Hippocampus	Right-Amygdala	Right-Accumbens-area	Right-VentralDC	Right-choroid-plexus	AirCavity	Skull	Vermis	Pons	CSF-ExtraCerebral	Head-ExtraCerebral	ctx-lh-bankssts	ctx-lh-caudalanteriorcingulate	ctx-lh-caudalmiddlefrontal	ctx-lh-cuneus	ctx-lh-entorhinal	ctx-lh-fusiform	ctx-lh-inferiorparietal	ctx-lh-inferiortemporal	ctx-lh-isthmuscingulate	ctx-lh-lateraloccipital	ctx-lh-lateralorbitofrontal	ctx-lh-lingual	ctx-lh-medialorbitofrontal	ctx-lh-middletemporal	ctx-lh-parahippocampal	ctx-lh-paracentral	ctx-lh-parsopercularis	ctx-lh-parsorbitalis	ctx-lh-parstriangularis	ctx-lh-pericalcarine	ctx-lh-postcentral	ctx-lh-posteriorcingulate	ctx-lh-precentral	ctx-lh-precuneus	ctx-lh-rostralanteriorcingulate	ctx-lh-rostralmiddlefrontal	ctx-lh-superiorfrontal	ctx-lh-superiorparietal	ctx-lh-superiortemporal	ctx-lh-supramarginal	ctx-lh-frontalpole	ctx-lh-temporalpole	ctx-lh-transversetemporal	ctx-lh-insula	ctx-rh-bankssts	ctx-rh-caudalanteriorcingulate	ctx-rh-caudalmiddlefrontal	ctx-rh-cuneus	ctx-rh-entorhinal	ctx-rh-fusiform	ctx-rh-inferiorparietal	ctx-rh-inferiortemporal	ctx-rh-isthmuscingulate	ctx-rh-lateraloccipital	ctx-rh-lateralorbitofrontal	ctx-rh-lingual	ctx-rh-medialorbitofrontal	ctx-rh-middletemporal	ctx-rh-parahippocampal	ctx-rh-paracentral	ctx-rh-parsopercularis	ctx-rh-parsorbitalis	ctx-rh-parstriangularis	ctx-rh-pericalcarine	ctx-rh-postcentral	ctx-rh-posteriorcingulate	ctx-rh-precentral	ctx-rh-precuneus	ctx-rh-rostralanteriorcingulate	ctx-rh-rostralmiddlefrontal	ctx-rh-superiorfrontal	ctx-rh-superiorparietal	ctx-rh-superiortemporal	ctx-rh-supramarginal	ctx-rh-frontalpole	ctx-rh-temporalpole	ctx-rh-transversetemporal	ctx-rh-insula
0	30	82.13545989990234	31.3255615234375	29.99254035949707	117.1053237915039	103.09976196289062	171.13804626464844	111.27017211914062	79.68810272216797	102.72207641601562	200.7708740234375	54.351905822753906	88.54035949707031	133.13742065429688	30.2960147857666	86.38875579833984	19.91905975341797	44.33160400390625	95.51768493652344	80.7024917602539	132.36268615722656	113.32821655273438	121.796630859375	130.0084228515625	155.59556579589844	121.4349365234375	95.87649536132812	18.72640037536621	30.473249435424805	40.53491973876953	21.20814323425293	118.26518249511719	21.572921752929688	116.03321075439453	134.27963256835938	68.24641418457031	135.30374145507812	135.53131103515625	98.37041473388672	80.20852661132812	52.0930061340332	117.03167724609375	67.54883575439453	69.18574523925781	152.1971893310547	145.55198669433594	74.0245590209961	94.83367156982422	104.444091796875	151.12330627441406	58.66667938232422	58.818275451660156	133.28268432617188	106.34331512451172	84.25543212890625	107.56620025634766	127.96538543701172	220.3198699951172	92.04816436767578	105.89335632324219	106.32828521728516	149.4468536376953	138.4197998046875	66.79912567138672	24.335102081298828	240.9406280517578	235.92074584960938	103.57344818115234	90.15138244628906	123.59666442871094	194.58026123046875	143.9729461669922	125.39679718017578	107.95990753173828	64.27134704589844	81.98020935058594	63.842529296875	181.70631408691406	110.86421203613281	93.36407470703125	106.37169647216797	149.5289306640625	86.94682312011719	177.74978637695312	67.28648376464844	127.08942413330078	134.7614288330078	108.70858764648438	69.49146270751953	112.39346313476562	112.11228942871094	202.32147216796875	102.91445922851562	109.57611846923828	103.35350036621094	167.1475372314453	120.95443725585938	67.661865234375	61.804664611816406	273.768798828125	253.81105041503906
30	60	4005.4248046875	3943.400634765625	4593.822265625	5917.755859375	5543.5400390625	5990.669921875	4277.5283203125	3976.474609375	5192.57958984375	4712.482421875	3293.85595703125	5353.3515625	4402.2568359375	4649.0654296875	4084.341796875	3795.5	4633.0703125	6033.90771484375	4842.14306640625	6490.47265625	4363.16552734375	4994.28466796875	4690.31591796875	5130.62939453125	5071.50830078125	5251.787109375	701.9459838867188	1452.27978515625	4966.87841796875	4109.6982421875	5114.85986328125	851.0714721679688	5986.6650390625	4982.76318359375	5984.11669921875	7267.23779296875	5211.15625	4996.673828125	5547.01513671875	4793.1728515625	5684.90283203125	5203.85693359375	5449.2802734375	6462.3037109375	5841.3818359375	4986.73583984375	4908.896484375	4887.1435546875	6129.15576171875	4865.380859375	6063.48095703125	7802.01806640625	5443.51416015625	5045.33935546875	5609.62060546875	6311.3720703125	5814.8330078125	5712.751953125	5754.7373046875	5168.32373046875	5384.234375	5852.87109375	5341.24267578125	4399.908203125	7912.2451171875	6417.236328125	5811.205078125	5451.25439453125	5728.05078125	7364.8232421875	4509.66650390625	4732.4365234375	5477.4208984375	5074.912109375	5353.728515625	5630.421875	5763.326171875	5980.35205078125	5876.58544921875	5083.06201171875	4658.30126953125	5372.04443359375	6030.76904296875	5099.42529296875	5955.99267578125	7664.65625	5598.4853515625	6073.42333984375	5630.076171875	6412.84228515625	5820.865234375	5731.08740234375	5840.16552734375	5261.90576171875	5904.5595703125	6331.38671875	5224.0615234375	3448.4091796875	7800.9501953125	6315.08837890625
60	90	11586.2021484375	11037.3232421875	13816.671875	16341.130859375	14262.4443359375	17513.1796875	13748.8095703125	10683.9892578125	13517.7431640625	12594.05859375	9088.884765625	17313.083984375	12788.021484375	13212.2685546875	11846.1533203125	10482.87109375	13707.736328125	17335.5078125	15084.248046875	18864.705078125	13150.8623046875	13179.26953125	12576.759765625	15316.9970703125	12998.3173828125	12896.6025390625	1737.853271484375	3974.111083984375	12557.419921875	12223.4853515625	13587.3857421875	2354.734130859375	16584.15234375	14299.3701171875	17330.095703125	20450.970703125	11838.4580078125	14052.865234375	15803.5263671875	13370.3232421875	15710.279296875	15535.072265625	15457.412109375	17173.607421875	16193.2060546875	14389.638671875	13032.9609375	14570.62890625	16912.9296875	13385.6533203125	17149.796875	21995.451171875	15730.7333984375	16240.208984375	15913.5263671875	17079.86328125	16259.5791015625	16793.955078125	16345.87890625	15134.0380859375	14758.0498046875	16104.2763671875	15494.7734375	11315.76171875	19953.017578125	16815.001953125	15985.345703125	14510.41015625	17155.431640625	20971.095703125	11703.2333984375	14355.3955078125	16247.55859375	13875.8076171875	16728.5390625	16370.1484375	15865.5751953125	17156.556640625	16579.53125	14549.41015625	12999.6279296875	15191.0546875	16917.025390625	14211.671875	17367.419921875	22366.3125	15806.05078125	17228.88671875	16083.3603515625	17594.236328125	17398.26171875	16876.130859375	16591.505859375	15257.001953125	16128.087890625	17366.6171875	15987.01171875	10677.8818359375	19047.462890625	16029.5029296875
90	120	20015.6171875	19484.93359375	24398.17578125	29437.998046875	26397.669921875	29622.337890625	24666.5078125	18310.84765625	23105.1015625	21184.51171875	15956.3095703125	29012.34375	21151.322265625	19704.91015625	20422.951171875	18839.349609375	24346.744140625	30512.314453125	25276.462890625	31360.775390625	21934.87109375	23260.3203125	22047.939453125	26421.2109375	22666.34765625	22201.666015625	3175.971923828125	6743.8837890625	23095.81640625	21418.392578125	22706.43359375	4198.60498046875	27224.28515625	25129.62890625	29542.9140625	34597.26171875	20458.896484375	23693.70703125	27647.072265625	23664.740234375	27872.169921875	26972.185546875	27493.25390625	30636.103515625	27508.03515625	25160.43359375	24657.994140625	24775.119140625	29468.1796875	24988.404296875	30385.33203125	38518.26953125	26724.08984375	27943.23828125	27501.15234375	29828.455078125	28153.71484375	29273.84765625	28140.234375	26316.9609375	25504.4609375	27378.93359375	27912.3828125	19455.8203125	32120.927734375	27108.119140625	28569.6796875	25749.673828125	29911.576171875	35373.41015625	18538.28125	24630.216796875	27621.99609375	23777.861328125	28856.36328125	28500.955078125	26560.30078125	29440.578125	29494.5546875	25246.619140625	21832.564453125	26147.87109375	29495.681640625	27062.939453125	30574.24609375	38173.3984375	27260.728515625	29157.701171875	27711.041015625	29963.4609375	29771.115234375	29463.640625	28579.3359375	26458.25	27667.568359375	29238.51171875	27768.74609375	18300.34765625	32291.345703125	26777.1484375
120	150	28008.646484375	28037.046875	33912.95703125	40372.1640625	36002.39453125	43342.921875	31592.08984375	26288.18359375	32563.111328125	28141.22265625	20365.935546875	39691.0078125	29829.212890625	25452.326171875	28041.685546875	26928.72265625	34169.36328125	40543.55078125	36439.41796875	43728.62109375	32537.7421875	31843.931640625	30696.560546875	37891.171875	30262.056640625	27971.033203125	4176.52197265625	8959.404296875	31838.861328125	31863.759765625	30604.830078125	5711.77734375	39457.8828125	35094.52734375	41993.89453125	47969.7578125	28332.31640625	33906.48046875	38383.81640625	34060.0390625	39761.95703125	38338.95703125	39354.515625	42154.65625	38251.4609375	35555.0703125	29515.533203125	34923.73828125	40490.9765625	37691.78515625	42354.6875	51995.25390625	37935.578125	39093.15234375	39234.07421875	41050.08203125	37305.84765625	40906.03515625	39100.08984375	36081.6953125	35069.6640625	38922.29296875	37625.6953125	27247.208984375	47049.82421875	37412.359375	40778.2734375	36170.56640625	41846.359375	48037.5390625	23734.14453125	33792.3984375	39000.3046875	34235.16015625	40016.73828125	40018.34375	36749.28515625	40693.6328125	39272.3359375	35317.50390625	31151.923828125	35935.16796875	40451.65625	38172.55859375	42424.7421875	51338.33984375	37604.04296875	38883.42578125	38676.94921875	41742.77734375	39772.23046875	40727.00390625	39859.984375	37010.0546875	37287.75390625	40722.25390625	40080.64453125	27293.857421875	44030.46484375	35382.125
150	180	31462.71875	31403.291015625	38865.6953125	43753.9140625	41174.17578125	48355.08203125	36174.43359375	28987.552734375	35642.8125	30899.583984375	22674.54296875	45779.83984375	34031.3515625	29689.279296875	31509.330078125	30838.359375	38897.02734375	45935.328125	41137.859375	48453.4296875	35356.2578125	35424.14453125	34400.33984375	43297.078125	33179.63671875	34079.984375	4457.0283203125	9753.5361328125	37064.375	34518.91796875	33018.7578125	6379.982421875	43635.61328125	38435.3359375	48030.7890625	52561.76171875	29666.81640625	38354.46875	43680.87890625	38376.8125	40961.2734375	43383.546875	43246.31640625	45567.125	41768.578125	40585.72265625	33559.0234375	38563.32421875	44815.48828125	41827.9609375	46939.140625	56950.97265625	42551.3515625	43126.78125	43965.3984375	46325.51171875	39858.1171875	45303.140625	42564.18359375	41337.44921875	39344.2578125	43602.16796875	40985.796875	31555.044921875	52786.3515625	40524.2734375	45021.02734375	40234.6640625	46807.30078125	53545.56640625	28473.736328125	39625.5078125	43377.546875	38328.8203125	42147.13671875	44585.79296875	41728.4921875	44709.76171875	43254.60546875	40460.89453125	34395.11328125	39309.69921875	44617.65625	43311.625	46813.7265625	56851.84765625	41939.5390625	44858.1015625	42905.2890625	45921.78515625	45293.78515625	46211.56640625	44094.58984375	40565.77734375	42193.18359375	44452.6953125	41984.8828125	31621.900390625	47843.52734375	40315.1796875
180	240	31734.673828125	32581.279296875	38908.4921875	45705.4453125	41230.03125	49399.87890625	37451.30078125	29213.3359375	35115.4609375	32869.88671875	22321.888671875	47854.6796875	33449.5859375	27078.2890625	31834.546875	31398.119140625	38886.05859375	47282.0234375	40860.00390625	49040.08984375	37635.546875	35012.94140625	32760.236328125	42548.58203125	33517.59765625	29920.837890625	4157.7822265625	9856.5498046875	36289.14453125	35397.96875	32433.173828125	6616.95849609375	44175.73828125	37937.55078125	46773.74609375	52115.3359375	29555.1875	39196.1484375	43576.65234375	38701.98828125	41275.6640625	42197.28125	42935.3125	45520.5390625	41556.03125	40544.58203125	34495.09375	38443.64453125	43310.2890625	41659.85546875	46214.67578125	55964.6484375	42583.671875	41697.38671875	43768.73046875	45637.96875	41091.796875	44991.390625	42667.8359375	40807.921875	39775.7265625	43924.01953125	40030.8203125	32153.4609375	51466.33984375	40374.23828125	46187.203125	40184.02734375	45727.12109375	53187.5625	27350.18359375	39328.9609375	43433.55078125	38879.9609375	42473.75	44396.40234375	40895.4609375	44392.18359375	42702.2265625	40110.02734375	33639.5078125	40637.54296875	45253.66015625	42020.5234375	45775.41015625	55334.3125	42582.46875	44828.40234375	42782.24609375	46107.140625	43228.3046875	45613.19140625	43646.7890625	41415.015625	41886.25390625	44648.94140625	42458.30859375	30050.6953125	50388.60546875	39922.05078125
240	300	30940.978515625	31575.953125	37563.2421875	45046.26171875	39176.09765625	48474.546875	36771.59765625	28232.212890625	33682.41796875	32960.17578125	21419.658203125	47805.87890625	32200.392578125	25960.92578125	31010.033203125	30685.34375	37783.125	44930.71875	39778.09765625	47418.8984375	36454.44140625	33897.44921875	31939.908203125	40696.13671875	33091.3046875	28353.205078125	4202.2412109375	9758.5302734375	35535.44140625	33822.2578125	30672.525390625	6872.0869140625	42190.3359375	37567.484375	44130.4609375	47960.25	30746.0703125	37527.53125	41356.953125	37757.76171875	39009.23046875	39790.37890625	41028.375	43383.34375	39372.89453125	39056.671875	34554.1796875	38644.89453125	41912.4375	39386.45703125	43269.328125	49947.3515625	40977.17578125	40306.328125	41740.4453125	43090.7109375	38952.9921875	42974.6796875	40792.70703125	39277.0	38129.765625	41898.171875	36440.26953125	30444.158203125	46462.6640625	39232.296875	43475.0	37585.3671875	43079.83203125	49799.6953125	25875.134765625	37861.4921875	41622.87890625	37689.30078125	38870.1640625	41795.6171875	38771.09375	41796.1953125	40836.765625	38624.875	33074.7421875	39900.7890625	42178.65625	39290.4609375	43940.55078125	50426.40234375	40607.39453125	42397.46875	40851.1953125	43468.62890625	41739.859375	43625.7734375	41277.98828125	39466.65625	39951.44921875	42348.53515625	39092.3359375	30340.658203125	45997.98828125	38481.06640625
300	360	29330.580078125	30211.21875	35663.90234375	42519.2578125	37393.9375	45947.1015625	36150.36328125	27353.841796875	32028.0	30361.453125	20177.822265625	41563.8671875	31060.3828125	23252.1640625	29335.181640625	28566.06640625	35495.375	42000.5390625	36439.07421875	44753.8203125	36705.828125	31836.69921875	31559.015625	38375.9609375	32062.12109375	26103.775390625	3888.669189453125	9497.44140625	33063.15234375	31700.46484375	28354.841796875	6954.56005859375	40101.05859375	33423.8046875	40514.5703125	44420.19921875	28228.201171875	35872.640625	38357.90625	34975.8046875	35120.40625	36419.3515625	37631.5078125	40268.11328125	37421.8125	36505.375	32221.990234375	35492.71875	39307.34765625	35886.98046875	39678.953125	45839.33203125	37698.890625	37368.42578125	38430.72265625	40187.30859375	36070.3984375	39656.31640625	37532.03125	36681.9296875	35344.4296875	39225.76953125	35952.765625	28983.3125	43283.14453125	37411.16015625	40286.4453125	35546.06640625	39786.00390625	44809.16796875	24471.251953125	35479.34375	38856.046875	35572.3828125	36308.1015625	38668.0703125	35908.65625	38778.0234375	38575.31640625	36277.10546875	30969.2109375	36809.859375	38819.421875	37099.00390625	40210.60546875	45927.9296875	37429.765625	39436.390625	38038.62109375	39710.7578125	39488.58203125	39857.08203125	38254.78125	36322.43359375	37100.33203125	39126.24609375	37106.52734375	28987.091796875	42514.46484375	36023.50390625
360	480	27035.791015625	28247.9296875	31995.7578125	38841.73046875	34063.43359375	40893.96875	32933.109375	25518.060546875	29543.12109375	30802.001953125	18119.7578125	39139.26171875	28496.85546875	21578.845703125	27026.322265625	27478.76171875	32238.66796875	39612.08984375	33110.93359375	40229.28125	33901.0234375	29293.154296875	29640.69921875	36034.74609375	29508.7265625	23693.076171875	3756.749267578125	9119.77734375	30492.9765625	28982.857421875	24849.65234375	6965.92822265625	35465.6171875	30576.720703125	35778.15234375	38634.44921875	26251.1875	32486.306640625	34329.9765625	32081.548828125	32278.134765625	31797.130859375	33927.80859375	35611.7578125	33361.53125	32977.72265625	28994.197265625	31210.376953125	34227.2734375	31118.908203125	35134.15625	38050.01953125	33263.32421875	33382.046875	34381.25390625	35513.2734375	33007.14453125	34918.96484375	33481.98046875	32708.294921875	32468.640625	34615.5078125	31015.3515625	26567.919921875	36969.92578125	33483.59765625	35893.578125	31695.0625	34501.5078125	39058.41015625	22745.15234375	32915.96484375	34326.34765625	32428.533203125	32031.525390625	33791.7265625	31949.328125	34442.08203125	33888.6015625	32835.6171875	28470.26171875	32427.763671875	34903.4609375	31490.63671875	35053.44140625	37984.609375	33007.08984375	34457.48046875	33739.4921875	35072.0859375	34708.86328125	35118.015625	33213.8359375	32443.55859375	33653.96484375	34623.9453125	32356.408203125	26624.7734375	36539.50390625	32790.71484375
480	600	24323.8515625	26499.755859375	27981.751953125	35066.484375	28201.8125	35949.75	31686.26171875	23009.140625	26087.95703125	27003.53125	15688.638671875	33901.44140625	26526.873046875	17824.931640625	24182.384765625	25613.931640625	28480.591796875	35111.24609375	28147.111328125	34422.33984375	29758.03515625	26824.556640625	27533.98828125	31075.630859375	27160.03125	19920.162109375	3483.922119140625	8649.8193359375	25909.1015625	25969.193359375	21027.08984375	7070.5	30591.12109375	27434.53125	30238.462890625	32402.009765625	23762.423828125	28375.337890625	28972.06640625	28866.201171875	27497.34375	27198.595703125	29200.916015625	29869.923828125	28890.7109375	28615.974609375	26536.73828125	26763.021484375	29286.875	26709.974609375	29966.802734375	31648.314453125	28450.1328125	28794.595703125	29117.7421875	29821.45703125	29683.27734375	29902.525390625	28645.32421875	27951.861328125	28028.5	29562.392578125	26430.83203125	24145.255859375	31424.263671875	29785.849609375	31040.126953125	27366.828125	29113.9140625	32703.93359375	21398.94140625	28899.341796875	29065.974609375	28689.60546875	27569.330078125	28624.4453125	27730.830078125	28948.806640625	28792.556640625	28529.66796875	26303.904296875	28316.115234375	29466.244140625	27438.078125	30043.681640625	30943.09375	27965.984375	29982.208984375	28721.365234375	30234.826171875	30078.65625	29939.205078125	28529.69921875	27522.126953125	29209.080078125	29357.638671875	27071.1640625	24160.107421875	30060.69140625	28531.958984375
600	900	20875.8359375	22867.935546875	22358.453125	28609.11328125	22483.48828125	28387.046875	26359.826171875	20153.53515625	21804.02734375	23270.90234375	13489.0888671875	27250.025390625	23505.083984375	15255.794921875	20818.79296875	22153.255859375	22651.986328125	28826.845703125	22186.599609375	27898.0234375	26850.986328125	22328.095703125	23831.14453125	25786.3515625	23313.49609375	16299.279296875	3303.904541015625	8169.1953125	21067.9140625	22877.90625	16419.609375	7128.087890625	24343.9921875	22154.767578125	23567.0703125	25237.19921875	19834.19921875	23234.9296875	23038.751953125	22817.984375	21708.6328125	21479.478515625	23245.73046875	23854.0625	22780.419921875	23019.96875	21675.3203125	21047.935546875	23184.36328125	21224.103515625	23279.74609375	24686.03125	22256.189453125	23141.8359375	23040.65625	23568.83203125	23596.818359375	23325.5859375	22327.154296875	21956.166015625	22868.279296875	23203.3828125	20641.626953125	21158.005859375	24579.298828125	24162.642578125	24860.62109375	22445.025390625	22966.1328125	25301.287109375	17508.90625	23791.611328125	22999.568359375	23351.193359375	22184.98828125	22579.15234375	22327.263671875	23108.8671875	23172.65625	23224.306640625	21740.751953125	22127.392578125	23371.71484375	22030.21875	23450.140625	24241.490234375	22089.15234375	23710.486328125	22312.17578125	23614.744140625	24021.333984375	23436.060546875	22137.130859375	21756.361328125	23319.224609375	22801.083984375	21092.716796875	20401.83203125	23574.783203125	23838.828125
900	1200	17848.32421875	19325.25	16837.685546875	22236.849609375	16518.908203125	21893.52734375	22691.80078125	16695.083984375	17551.88671875	18683.041015625	11225.76953125	20503.515625	19566.31640625	13063.52734375	17687.818359375	18961.80078125	17194.4140625	22397.806640625	16379.9638671875	21413.27734375	22635.369140625	17765.80859375	19349.48828125	18861.33203125	19598.951171875	13733.935546875	3082.870361328125	7589.369140625	15314.6533203125	19523.21875	12608.2802734375	7259.1748046875	19086.38671875	17948.8359375	18174.40234375	19400.416015625	16324.703125	18569.361328125	18019.978515625	18559.2109375	17900.125	16491.64453125	18477.55859375	18137.353515625	18087.3984375	18075.830078125	16879.787109375	16459.443359375	17845.84375	17057.767578125	18151.357421875	18927.310546875	17339.953125	18078.3828125	18065.392578125	18152.189453125	18438.134765625	18166.892578125	17206.759765625	17157.892578125	18135.466796875	18176.669921875	15415.3486328125	17880.853515625	18891.009765625	19348.017578125	19319.466796875	17694.986328125	17724.134765625	19408.060546875	14867.9814453125	18768.119140625	17726.70703125	18571.31640625	17392.982421875	17492.234375	18033.71875	17862.060546875	18118.154296875	18151.8359375	17037.38671875	17071.27734375	18289.42578125	17447.26953125	18282.326171875	18949.025390625	17074.8671875	18246.96484375	17517.435546875	17977.943359375	18614.5	18101.7890625	17061.73046875	16898.275390625	18171.646484375	17691.9609375	15841.6669921875	16590.697265625	18227.15625	18940.2109375
1200	1500	16048.4921875	17016.79296875	13678.8330078125	17991.974609375	13955.5341796875	18074.564453125	19258.447265625	14349.52734375	14480.470703125	16073.9384765625	9944.67578125	16281.1767578125	16925.060546875	11323.3349609375	15975.0966796875	16947.51171875	13896.57421875	18465.57421875	13037.8955078125	17779.19921875	19847.0078125	14859.94140625	16349.3466796875	15405.7392578125	16750.369140625	12218.470703125	3019.668212890625	7300.06396484375	12935.73046875	16812.95703125	10712.4658203125	7387.935546875	16138.6552734375	14840.666015625	15318.8798828125	16171.666015625	14153.853515625	15632.6318359375	15196.9267578125	15653.0302734375	15300.59765625	14040.3955078125	15856.8173828125	15522.333984375	15370.0673828125	15335.751953125	14396.091796875	14320.4267578125	15457.814453125	14747.669921875	15463.1337890625	16684.294921875	14772.431640625	15506.837890625	15239.8271484375	15508.962890625	15775.2939453125	15361.076171875	14619.2939453125	14531.4482421875	15370.7275390625	15235.314453125	13276.1630859375	14966.41796875	16329.802734375	16238.4111328125	16643.38671875	15056.533203125	14927.59375	16158.548828125	12717.4521484375	15949.1767578125	15027.9580078125	15859.4658203125	14666.10546875	14854.1865234375	15339.205078125	15414.322265625	15175.4375	15516.3818359375	14482.650390625	14255.42578125	15561.068359375	15028.2373046875	15759.5322265625	16100.3662109375	14533.7578125	15641.638671875	14939.072265625	15356.458984375	15309.35546875	15462.4912109375	14364.5615234375	14450.056640625	15416.7294921875	15079.4130859375	13441.7802734375	14098.60546875	15384.6171875	16123.7861328125
1500	1800	14709.9658203125	15307.84765625	11285.3427734375	15079.3798828125	11465.029296875	15260.5791015625	17000.5078125	12256.921875	12653.373046875	13907.56640625	8887.900390625	13626.5537109375	15009.98046875	10130.9326171875	14603.810546875	15177.6884765625	11570.93359375	15080.8115234375	11281.23828125	14894.5751953125	16407.86328125	13084.60546875	14217.4521484375	13221.3525390625	14631.2763671875	11065.9248046875	2791.60302734375	7093.95263671875	10369.8486328125	14932.900390625	9379.3759765625	7417.3583984375	14533.2109375	13327.193359375	13656.5234375	14354.0517578125	12319.9345703125	13968.66796875	13363.3115234375	14091.4619140625	13475.93359375	12521.43359375	14259.123046875	13506.2880859375	13841.5771484375	13571.6611328125	13125.6201171875	12329.140625	13760.1767578125	13025.5	13848.021484375	14488.64453125	13004.109375	13650.44140625	13295.1884765625	13638.5771484375	13743.265625	13559.0849609375	12884.8046875	12904.09375	13457.5869140625	13392.4716796875	11610.72265625	13232.3232421875	14178.5234375	14203.646484375	14777.8388671875	13267.3857421875	13105.50390625	14361.37890625	11199.1591796875	14139.3818359375	13237.345703125	13808.34375	13302.802734375	13130.9248046875	13389.126953125	13543.9453125	13282.16796875	13544.44921875	12830.732421875	12666.083984375	13530.2958984375	13054.0400390625	13783.0966796875	14355.1298828125	12605.12109375	13607.2578125	13012.837890625	13544.9775390625	13220.0478515625	13649.6533203125	12641.5654296875	12639.4931640625	13421.373046875	13197.2646484375	12187.7587890625	12409.05859375	13491.064453125	14043.50390625
1800	2100	13471.2099609375	12996.349609375	9507.1015625	12661.126953125	9715.3603515625	13095.91796875	14796.84375	10544.14453125	10787.775390625	11524.7197265625	8150.9775390625	11359.4482421875	12794.6103515625	8805.3974609375	13375.9697265625	12956.390625	9769.435546875	12613.9697265625	9222.376953125	12750.8046875	14378.32421875	11149.9072265625	12064.041015625	10418.193359375	13179.541015625	10009.3720703125	2672.2509765625	6955.7509765625	8552.7158203125	13275.7216796875	8295.0712890625	7405.84765625	13000.26953125	11962.83203125	11745.6572265625	12880.50390625	10496.4140625	12469.525390625	11747.107421875	12661.880859375	12851.1533203125	11406.369140625	12753.9423828125	12692.1474609375	11970.1884765625	12066.9560546875	11334.1171875	11176.197265625	12065.115234375	11523.1533203125	12484.513671875	13282.7431640625	11054.5771484375	12008.0673828125	11595.1064453125	12527.74609375	11936.9580078125	11792.4462890625	11295.93359375	10928.08203125	12143.90625	11770.0537109375	10322.4892578125	11646.5625	12298.7705078125	12809.4541015625	12993.486328125	11703.962890625	11870.4423828125	13165.0439453125	10216.75	12702.646484375	11398.6875	12825.478515625	12070.166015625	11832.4765625	12486.0595703125	12409.08203125	11629.1669921875	11887.025390625	11541.712890625	11341.8173828125	12242.2666015625	11913.982421875	12443.2802734375	13104.9990234375	10890.5859375	12135.619140625	11471.498046875	12108.1279296875	12054.49609375	11851.9873046875	11003.177734375	11005.912109375	11897.13671875	11584.08984375	10355.7470703125	10705.50390625	11883.8662109375	12399.9609375
2100	2400	12527.564453125	11438.318359375	7982.56884765625	10347.3916015625	8879.177734375	11116.9404296875	11935.0048828125	9268.0517578125	9885.7236328125	10885.009765625	7594.56787109375	9243.6318359375	10880.72265625	7907.12890625	12327.2216796875	11434.1650390625	8271.4169921875	10398.4677734375	8295.3681640625	11209.212890625	12267.8623046875	10017.2998046875	11132.9345703125	9075.45703125	11338.8974609375	8967.40625	2612.97119140625	6698.60009765625	7576.49951171875	11764.421875	7338.50390625	7337.734375	11954.046875	10583.1953125	10696.0029296875	11499.94140625	9259.3466796875	11565.3603515625	10501.2548828125	11703.3193359375	11289.3935546875	10459.2099609375	11618.4482421875	11288.7666015625	10926.169921875	10953.6298828125	10092.6279296875	10561.0673828125	10775.361328125	11234.21484375	11338.146484375	12042.361328125	10015.7724609375	10798.3837890625	10475.490234375	11142.068359375	10609.0009765625	10829.6884765625	10187.4306640625	9660.3154296875	10896.57421875	10691.0361328125	9465.173828125	10381.66796875	11789.2978515625	11656.5693359375	11836.7060546875	10449.76953125	10555.2939453125	11728.025390625	9736.841796875	12180.8515625	10198.15234375	11899.3857421875	11318.658203125	10773.7568359375	11710.7529296875	11425.2080078125	10735.837890625	10682.580078125	10430.8916015625	10331.650390625	11403.0576171875	12029.0302734375	11360.49609375	12124.7216796875	9751.927734375	11091.90234375	10017.90234375	11081.537109375	10465.7607421875	10698.9541015625	9914.7802734375	9681.4736328125	10535.6455078125	10384.9912109375	9177.814453125	9868.42578125	10314.3583984375	11262.6923828125
2400	2700	11566.9296875	10248.9326171875	6989.95751953125	8764.7294921875	7812.25244140625	10143.39453125	11506.3271484375	7892.17138671875	8842.734375	8945.5927734375	6931.63818359375	8200.337890625	9823.2998046875	7663.181640625	11442.6650390625	10085.8955078125	7143.80615234375	8845.9267578125	7555.62158203125	9987.814453125	10911.1748046875	8573.037109375	9263.279296875	7748.349609375	9838.3994140625	8001.44921875	2613.960693359375	6426.3388671875	6019.1171875	10121.4384765625	6707.232421875	7152.16943359375	10650.6064453125	9780.16015625	9795.173828125	10549.6611328125	8720.529296875	10819.8271484375	9484.6962890625	10780.87109375	10518.29296875	9372.26953125	11126.4443359375	10388.7763671875	10041.2646484375	10076.830078125	9310.3896484375	9510.58203125	10132.537109375	10257.9189453125	10618.3701171875	11191.1767578125	9148.3173828125	9840.9697265625	9473.349609375	10291.314453125	9590.0751953125	9651.064453125	9156.7353515625	8793.8291015625	9970.501953125	9927.4208984375	8427.4521484375	9336.4970703125	10562.6884765625	10590.3642578125	10979.255859375	9617.796875	9313.9228515625	10726.0205078125	8211.2744140625	11085.2197265625	9236.884765625	10943.4423828125	10122.2998046875	9548.951171875	10553.4423828125	10266.462890625	10072.8642578125	9905.884765625	9452.4521484375	9135.220703125	10412.095703125	10951.736328125	10241.8408203125	11452.427734375	9006.740234375	10108.1845703125	9191.1025390625	9965.88671875	9562.7548828125	9689.2265625	8971.8271484375	8802.7060546875	9677.455078125	9641.833984375	8886.732421875	8517.865234375	9104.0634765625	10093.2158203125
