frame_start	frame_end	parasubiculum	HATA	fimbria	hippocampal_fissure	HP_tail	presubiculum-head	presubiculum-body	subiculum-head	subiculum-body	CA1-head	CA1-body	CA3-head	CA3-body	CA4-head	CA4-body	GC-ML-DG-head	GC-ML-DG-body	molecular_layer_HP-head	molecular_layer_HP-body	Lateral-nucleus	Basal-nucleus	Central-nucleus	Medial-nucleus	Cortical-nucleus	Accessory-Basal-nucleus	Corticoamygdaloid-transitio	Anterior-amygdaloid-area-AAA	Paralaminar-nucleus
0	30	137.85444	113.12125	105.28541	98.92223	130.05609	91.64603	127.51087	73.75431	121.98642	110.92651	120.24814	100.0861	103.27531	96.59345	117.49405	101.84454	120.07178	94.09492	119.44601	96.28841	196.01343	183.933	89.20081	116.2673	170.58761	206.05757	226.08811	143.52886
30	60	5173.55907	4172.04206	6730.20182	5618.56731	5250.90681	5363.11075	6520.57395	4555.95023	5912.99358	4407.87369	3678.95951	5625.90627	5405.42091	5317.29139	6005.78904	5178.67912	5876.7635	4670.28158	5523.6635	3813.77734	4821.05487	4842.04814	3812.0668	4426.41476	5119.92131	5680.33745	5374.14226	4477.36357
60	90	14306.36632	14129.82893	14435.31512	13280.70937	14700.71493	13383.42439	14016.86869	11797.30366	12694.51825	12910.11099	10494.31787	15132.35176	13679.52654	13539.3019	13795.19936	13701.58161	13462.01985	13062.58606	13003.12256	10709.33359	13396.89052	14268.10404	15138.058	13683.08945	14149.27019	14147.14448	15785.06839	13344.95427
90	120	24190.95569	19401.43999	26001.91919	24323.24572	24270.14718	23933.81802	22613.94519	21911.28877	23179.46625	21829.95582	19083.42896	25951.3745	24883.11792	24156.72298	24657.8326	23601.07222	24028.62657	23396.05531	23142.28102	21081.53584	23552.62513	21747.26036	16948.27522	17277.68826	22017.8879	20459.05583	22023.47812	22364.55366
120	150	28281.88201	26746.95533	36956.11396	32825.14227	32590.34324	32257.51374	31484.35229	30994.97579	31177.49197	29577.10919	27845.79211	38010.31747	35441.2187	34461.48643	37073.35792	33102.03932	35815.13572	32788.39405	33548.81835	28420.23495	31610.98344	29992.64533	27304.92298	28573.61545	31186.33465	28410.71502	31714.13493	29007.44217
150	180	30514.94254	31731.10939	38533.46906	35805.75402	37516.7429	32727.25429	33599.4323	33164.05024	35536.01359	32616.43601	33049.99671	41939.54586	38982.47103	37971.65656	40444.2364	35913.19236	39267.84317	35382.5977	37335.89859	30468.66668	35731.56882	35330.54146	28753.09086	30279.51081	35416.92291	31084.98612	33072.26523	32237.8441
180	240	29614.28283	31059.41994	37025.25238	36187.72011	35672.75507	35104.45319	32770.25631	34706.42329	35782.00038	33948.44487	32629.26438	36902.63844	36841.29976	36968.60215	38068.68945	35446.08355	37360.75901	36074.96608	35942.19487	32395.2686	34832.47365	37071.89709	31034.48149	32386.63802	36101.82167	30354.88144	31044.81631	31967.22323
240	300	28507.19965	31943.14083	34730.06928	34750.33924	35298.08322	32640.59267	31221.50615	31022.72841	35670.8791	32181.41881	31132.60203	37789.47533	34839.44941	37411.20046	37291.88975	35256.71181	36334.17671	34346.40884	34856.3843	31238.5417	35151.14836	34266.03688	28486.16033	31602.91285	35709.07194	30939.39102	33251.63162	31210.70977
300	360	26918.36841	29048.38757	31850.66287	32606.22542	32873.89401	32005.96235	28155.9221	32577.09214	33159.20256	31169.87691	28794.62063	36038.72721	31203.65309	35697.33015	34147.20358	33627.96781	33222.35186	33608.57344	31814.54254	31680.6466	32656.72135	32779.52888	28559.93427	29043.03707	32088.64711	27131.19956	31576.91906	27928.33412
360	480	25724.79763	26199.81608	29534.02139	30794.38199	30124.42711	30722.45474	26566.12905	30431.63413	31488.80387	28707.45171	27681.74998	30071.62667	28775.73437	31871.17928	30745.1847	30629.77889	30337.7609	30763.4977	29595.20297	30404.06748	32309.05418	31950.55901	26602.17018	28947.67309	31879.72033	26849.14622	29166.93892	28204.31513
480	600	24470.81624	25533.08064	26268.62988	27254.61011	25557.90001	27738.85251	24086.50216	27060.26127	27847.46106	26665.1394	24947.02156	27744.88893	25301.49769	29134.09021	27396.05333	27833.98641	27057.26645	28156.89336	26405.76554	27720.38894	28690.22689	28208.77625	24347.69896	26647.8273	28718.1548	24800.74621	25074.03618	27223.67337
600	900	18651.48622	21078.22794	21846.42783	23148.57307	21392.47301	22625.64559	20544.61881	23315.32205	23497.16197	22050.85663	21444.81878	22288.63382	21367.55376	24168.55048	22683.04208	23333.91291	22601.69247	23029.45504	22205.93031	24271.68636	24410.998	23871.29108	22307.30571	23313.61797	24197.0756	21050.30331	22965.51126	21259.10214
900	1200	16033.6251	17517.76118	18046.58078	18182.87561	17750.43561	18418.7621	16191.50785	18979.35507	18352.13587	17598.96863	17407.71035	17112.67578	17263.28392	18897.27337	17538.58196	18388.77826	17533.41519	18453.01417	17346.60388	19824.62207	19242.70111	19180.86017	18946.95126	19697.19996	18894.50792	17029.74976	17549.26177	17563.64437
1200	1500	12819.42922	14481.28999	14963.44122	14641.77951	14458.03247	14861.50209	14097.16037	15718.27835	15516.16879	14447.66713	14807.35221	14499.4924	14844.88808	14759.93147	14833.37087	14671.8015	14886.53042	14912.9062	14859.54115	17673.31629	15740.99692	16370.21306	16213.49215	15763.11439	15501.11975	13905.45234	15083.83907	13957.30042
1500	1800	11393.07461	13015.80506	14132.9759	12697.7249	12924.56132	12762.71051	12031.12112	13555.29922	13014.34417	12520.29689	13123.63053	12866.9402	13980.30243	12632.44796	13034.30106	12666.97096	13036.77744	12785.22069	12990.62829	14952.61989	13502.23004	15286.74588	15509.61672	15447.01634	13828.06098	12370.1705	12983.87866	12006.97784
1800	2100	9121.193	11613.04118	11920.91393	10524.40678	10447.28221	10089.34413	10271.15054	11282.54179	10886.02519	10985.31153	11652.66124	11242.58147	12073.19236	10588.49141	11096.24909	10810.52248	11075.90338	10832.90823	11172.84492	12763.50975	11052.3094	12843.21583	14136.81089	13201.58101	11519.84662	10715.53524	10977.50285	9438.9741
2100	2400	8998.63186	10768.80952	10990.94393	9696.98511	9415.40161	9207.92594	9118.32151	9724.21892	10340.9439	9867.54697	10789.98676	9931.19278	11218.03777	9347.4797	10634.82156	9495.11507	10579.09744	9702.1553	10327.98877	12160.90859	10296.64447	10908.53856	11344.18398	10835.31877	10378.94657	9778.98414	9299.95021	9245.91552
2400	2700	7416.32889	10244.58899	9237.65969	8020.55053	8259.563	7786.8669	7792.5259	8615.49666	8592.8184	8726.94367	9817.37325	9135.55164	10121.23798	7942.82105	8799.63407	8450.70722	8848.20148	8389.17938	8988.46516	9705.62497	8421.69802	10425.95505	10495.69981	10056.27465	9060.56855	8470.96603	8758.52403	7544.88912
2700	3000	7256.65736	8441.14631	8805.80386	7915.03271	7950.17209	7594.34009	7356.46431	7478.44983	7615.56501	7906.45193	9123.72473	8206.12236	10202.03331	7751.81684	8601.31467	8021.53291	8536.73536	7723.26325	8671.42199	8657.46495	7480.03554	9372.61809	10019.31254	8923.86496	7980.91761	7137.14296	7683.63386	6329.55151
3000	3300	5737.50155	8273.5681	8012.56163	6580.47226	7497.28587	6202.48879	5939.9854	7377.13766	6513.43458	7080.18087	7994.18926	7569.49664	9127.33712	6412.07416	7362.26842	6716.67357	7223.42615	6864.7603	7294.74654	8308.35108	6726.94708	7779.12549	8645.65394	8170.48624	7344.8333	7459.60574	6981.90699	6401.24838
3300	3600	5626.62248	7780.3431	7355.65123	6391.63652	6441.25001	5879.35427	6084.02687	7377.79364	6518.13024	6665.84033	7880.16207	6633.97996	8308.84691	5904.04983	6937.98137	6124.42702	6934.74975	6543.33345	7098.45348	7972.56475	6736.30974	7784.56059	7745.42266	7649.24654	6587.77129	6399.87443	7281.2955	6278.51593
3600	3900	5655.60044	6144.47202	7057.86565	5789.95926	6130.29127	5429.24377	5291.72312	5717.92241	5887.41296	6232.31928	7406.03114	6416.27071	7870.96718	5493.67789	6926.30455	5972.3377	6813.22149	5825.59118	6773.9893	7066.32733	6330.48272	7112.30419	7339.30422	6530.6051	6145.20294	5573.33049	7328.37355	5144.79772
3900	4200	5166.6108	6398.88918	7042.84919	5965.33929	6519.63431	5689.54312	5913.71513	5778.23701	6133.31424	6136.65295	6685.35714	6283.35045	7088.28329	6182.01722	6304.45695	6289.36695	6350.62152	5979.92596	6367.01555	7159.02396	5729.48861	6228.42312	7184.40602	6275.82894	5586.89228	5599.57894	7343.22988	4600.35742
4200	4500	4427.63284	7140.95027	6907.13308	4802.88562	6111.85906	4304.93229	5194.55515	4950.47611	5574.60606	5439.30592	5908.4719	5794.69601	6814.26269	4535.44646	5996.6341	5092.81559	6015.00113	4862.09939	5862.87569	7082.51475	5451.31256	7040.12732	6912.20686	6581.05959	6511.65974	5619.8464	6737.73596	4524.96975
4500	4800	4503.27352	5213.3552	6114.72202	4977.46762	5063.15113	4110.96159	4920.41596	4721.24569	5084.19451	5214.47389	6199.81352	5967.79703	6392.01965	5193.16293	5550.66012	5042.23988	5467.5279	5003.3454	5630.05435	6338.05833	4344.69751	6802.72696	6529.77721	5649.91991	4837.44893	4095.63729	4786.32169	4035.09188
4800	5100	4335.17943	5682.38864	5643.20742	4795.10204	4768.24663	4565.70886	4404.33635	4710.77768	4662.81612	4920.08789	6438.05721	5110.02998	6166.15084	4507.27872	4899.69802	4780.81548	5020.93611	4813.34331	5199.51055	5720.90531	4242.68174	5181.36913	5526.38392	6130.2234	5171.28731	5342.64338	5653.74853	4057.79043
5100	5400	4265.46533	5385.97937	5605.1086	4143.38057	4564.72953	4073.88798	4287.43137	4134.79984	4624.18128	4909.36705	5069.26519	5001.93564	5575.80411	3902.11423	4867.61019	4119.12367	4800.16553	4553.9328	4662.70583	5357.29141	5075.89409	4972.09938	4902.96106	5015.50711	5318.41416	5528.91777	5204.5012	5191.7119
