frame_start	frame_end	Left-AV	Left-CeM	Left-CL	Left-CM	Left-LD	Left-LGN	Left-LP	Left-L-Sg	Left-MDl	Left-MDm	Left-MGN	Left-MV(Re)	Left-Pf	Left-PuA	Left-PuI	Left-PuL	Left-PuM	Left-VA	Left-VAmc	Left-VLa	Left-VLp	Left-VM	Left-VPL	Right-AV	Right-CeM	Right-CL	Right-CM	Right-LD	Right-LGN	Right-LP	Right-L-Sg	Right-MDl	Right-MDm	Right-MGN	Right-MV(Re)	Right-Pf	Right-PuA	Right-PuI	Right-PuL	Right-PuM	Right-VA	Right-VAmc	Right-VLa	Right-VLp	Right-VM	Right-VPL
0	30	76.13851	67.3091	100.80874	84.3468	181.62324	67.40346	237.04461	53.0442	178.4371	107.94808	101.74689	217.25117	41.76431	145.43471	54.88787	290.60282	82.35723	55.45543	67.31139	125.2982	169.56921	45.95482	159.84751	97.44924	96.90429	163.43441	42.5077	164.16563	93.30818	86.37336	68.32127	144.39587	121.89055	84.51291	227.02396	93.70114	54.26814	113.72963	21.03375	96.67358	72.96334	149.18058	138.70183	122.04479	80.96756	46.6264
30	60	5417.98113	4323.4098	5952.00659	6466.10246	6559.18317	6334.10397	6105.6595	4968.57603	7388.73842	6938.01048	6869.59566	4442.06062	4670.6875	8335.14724	5824.51322	5738.93585	6609.19859	4197.53205	4114.39253	5582.90644	5785.44215	3391.8936	5818.762	6665.61954	4612.24121	7014.08415	5247.73634	7926.46994	7299.87162	6300.10581	5375.72164	6959.09818	6197.29151	6981.85366	5955.3999	3836.19572	7328.1073	5230.59888	8304.95096	6856.22354	5106.13992	4807.40327	5907.46384	6189.96233	3862.297	5664.90891
60	90	18493.39751	12231.43739	18556.67695	16030.98208	20129.6763	16067.19123	21002.71811	16786.98184	18316.41929	17684.24251	17746.53999	9884.97539	13946.07171	19490.42981	17691.08541	16555.53419	17167.38369	13826.38891	10676.27793	15697.57213	15852.35501	11451.9084	15656.90695	19723.70185	14671.2136	19470.13452	17170.10598	18257.57443	15525.17308	19240.62033	16576.30868	20637.63757	18582.26838	22850.93467	10580.06128	12693.72094	21979.60323	16593.72829	19124.87327	18396.41195	14637.06613	13182.68609	17113.03984	17634.60248	13242.78369	17570.7596
90	120	33497.81868	22213.10893	33774.54941	30987.94331	32311.76771	26821.25941	36028.45111	27922.21211	35581.89004	34091.59643	30592.76865	23050.44805	30393.80839	34936.24266	28452.83568	32552.94799	30088.20304	23744.52085	23112.50156	27992.85398	29827.15361	19921.92773	27601.12965	31405.00975	28141.88278	36205.4279	31286.04459	33024.57366	24403.22581	33276.17497	25303.73356	38374.25762	35480.64886	28619.5016	20652.3291	26914.82679	39715.04129	27638.28765	33269.15834	30875.57477	25715.14029	24382.64562	31752.98927	32694.74796	18501.33691	28995.82439
120	150	46523.19664	33592.4822	45619.97188	45766.19936	41888.93698	35118.15266	39264.32304	35435.83086	51425.75846	45673.68916	36837.33433	31460.81641	39847.14007	49054.52848	35645.7621	44912.77915	40465.43743	34220.81514	29570.63555	39369.4975	42074.37403	25175.90508	39635.66638	42501.11121	32134.28407	44833.70703	46953.02532	41911.06752	35633.52204	47298.68376	36326.07959	48610.0642	45487.00682	43078.40422	28899.39795	39433.51045	49666.02531	40344.52266	41017.80129	39375.31197	32468.35537	30102.65148	40093.42401	43806.00616	30981.32715	41470.85738
150	180	46540.00749	36303.22653	53326.85039	48602.67506	49768.11667	36584.07012	54300.39221	40981.94922	56414.00661	52512.11994	42744.42162	32307.0502	48841.82884	51705.86585	39478.54544	44814.66421	41204.11373	36222.37843	32255.04258	40991.70717	46478.88832	31270.72148	44524.43611	42557.44211	39673.47012	50125.17676	47616.79817	41184.98647	38567.67591	46492.67533	37289.93294	59286.58282	51206.28702	40792.04367	36031.16846	39446.89023	57375.66116	42024.52676	49171.23682	44335.53156	36519.25292	40379.19314	47188.5262	51900.61584	32926.50391	48837.32321
180	240	46583.37247	38778.9857	51854.54922	51278.62316	50427.46432	39510.62935	54384.84268	39757.89922	58324.0961	52264.53697	45002.88489	35719.12461	39799.5908	58115.15027	42495.16189	47450.86761	44272.60448	37412.68211	36438.25156	42564.66629	48949.82098	31919.72539	46095.69574	46266.33946	40213.74617	51639.31803	54454.78756	47451.62472	39740.47589	55284.24827	37514.33822	58332.29555	51010.43456	39539.775	34272.63428	43028.75246	58507.25833	43081.56062	50739.0066	44677.17792	39028.69648	37327.90582	46808.5334	54489.9134	34280.46484	50281.71155
240	300	44079.24852	37556.34816	48727.36328	48307.71277	43516.48854	37590.13173	51935.98554	39871.17422	56344.2245	50368.27148	43751.72833	33629.18027	47032.25247	56439.80212	42713.10635	47772.73664	43430.00926	37622.9074	37103.06094	43497.1286	48839.30919	33119.40391	45951.60332	42087.69762	35300.32071	49794.55859	52633.61799	45032.22852	37361.28956	52411.24134	38802.97786	54606.10671	49003.37562	41992.61227	29009.99365	40765.70956	57959.36361	41993.56114	50624.64807	44195.96517	35882.76831	33384.64128	43457.28566	49296.91816	30738.68164	47877.33034
300	360	43188.84819	35564.50643	44187.51094	46322.6248	40635.42526	34953.84556	47506.13827	42067.70547	51613.40245	46106.84878	42029.19456	33670.66367	42541.58642	57234.81241	40360.55252	44600.69204	41533.50445	36458.70524	34748.92656	41438.87478	44442.61118	29600.0543	43898.31126	39218.98024	35974.07545	43587.22298	47426.08172	37454.66127	35748.90875	44913.2458	35426.11458	50052.89128	44972.88692	37813.09598	32342.04443	39714.9805	52262.42819	38856.24264	45895.58587	40914.61411	34871.09619	35955.21398	41326.35532	46926.18108	30918.92578	44923.63323
360	480	37064.39122	34028.89872	40237.86055	44121.06071	36246.74245	32347.57498	41593.93011	34260.24727	47687.63851	42210.1943	34539.2776	32676.78379	39731.28468	48208.37958	36744.21312	42733.86752	36799.60988	33099.72477	32163.67617	38691.80062	41293.64696	27374.08477	41204.95975	35446.10153	34927.39084	39494.59847	45596.74504	34081.94336	32925.79808	41912.55521	34612.69661	47035.65788	41685.81198	35024.70574	30325.78906	38055.26682	50131.34142	37376.77491	44497.33977	37629.91827	33390.56664	34162.12565	40233.81852	43832.80333	30410.93262	43006.43764
480	600	30927.01039	30782.65965	35002.13594	41979.03355	29043.94427	28123.67018	37110.87768	31796.45859	41132.88271	36077.55155	33398.04917	29499.71387	37282.77455	44106.35721	33354.50227	39235.16611	32724.25553	29600.03991	30240.6668	35428.06977	38195.38017	28150.10703	38830.16176	32869.74286	32349.78613	35545.28353	39890.68909	29271.52162	29545.50255	36872.96549	29888.39437	41195.85181	35719.99239	32375.32148	27582.55518	32767.17028	42669.76608	32972.7032	36902.58397	32040.68752	31991.30832	31803.49761	37071.76035	39765.96117	28691.01953	38367.19813
600	900	26848.29449	25981.84073	27608.41465	32778.71686	24477.64792	25305.31315	28423.18335	26263.37773	31999.91675	28250.99854	28057.82453	24834.83574	30612.35108	33970.01731	28178.08035	31722.50717	26112.6401	27577.50271	25182.57656	29917.01322	30338.60426	24200.11797	31486.28466	25800.72665	27740.73474	27870.50911	32078.34805	24642.83259	26364.51713	28308.10282	26979.14144	31706.98293	28025.68845	27501.76473	23201.15674	27700.29897	33188.15002	28812.60883	30946.98963	26605.11958	27205.58471	26656.62153	30178.67757	31768.64704	25199.47852	31884.72205
900	1200	21201.54785	21487.57749	20372.90977	24895.56143	18383.7791	20676.88562	20363.20605	19260.18906	23294.68421	21096.28307	20951.38095	20103.55566	23120.81573	24748.59033	21390.4752	23840.41476	19618.85283	22588.30631	22395.38203	24679.14519	24273.88569	19329.50977	24602.64096	20882.74215	21171.86133	20580.79671	23755.16783	17673.84856	21317.68782	19923.69725	21550.58333	23329.94501	20699.04624	22213.00023	18867.82373	21239.05091	23848.75195	22084.06332	24087.69801	19837.90038	22084.83738	21159.58767	24742.03984	25086.12882	21872.19629	25072.71067
1200	1500	17480.76797	18025.4527	15572.01318	20528.21123	14762.786	17352.89879	16214.74431	16477.26582	18934.97225	17325.25844	18580.50855	17513.87891	18262.28831	19166.04025	17306.17583	18419.07493	15854.57922	19232.67732	19115.17461	19721.51563	19249.41442	18673.04141	19470.40274	17567.41114	16727.42128	16633.06828	20070.208	15537.02944	19238.60431	17480.80321	17729.21802	18239.4428	16062.43695	18488.16949	16084.72363	17014.56496	19287.57221	18126.77338	19883.59035	16407.36782	19088.35072	17421.84353	20749.21458	20241.16879	17093.31348	20412.35136
1500	1800	14227.16213	14356.54291	13135.53359	16203.62499	12317.24746	15724.25067	13076.76118	14327.02324	14863.75563	13694.90015	15130.59145	14467.95898	15847.24633	14841.95907	15571.83434	15981.67424	13057.87938	16099.18492	14699.99063	16607.34939	16472.92466	17291.62305	17075.71129	13581.70066	14165.09104	13172.32454	15468.51514	11744.48403	16682.99999	13460.84285	14909.40584	14494.12534	13249.04987	14763.02107	13448.74829	13891.37847	14901.1488	14712.41821	16364.55553	13308.25651	15716.47622	15130.48503	16778.39094	16252.92386	18059.80078	17210.26551
1800	2100	10775.82679	13000.92526	11279.07314	13416.96467	10155.71947	13099.45434	10966.87373	11392.35527	12909.52473	11208.47897	12338.54265	13127.84854	12817.18046	12779.20802	12397.87063	13001.95865	10914.24837	14213.47584	14591.25781	14564.77183	13947.44374	15425.87012	14106.0301	11251.99775	11743.53575	10053.21769	12737.52211	9588.27846	13950.1706	10913.3251	12972.47217	11685.43813	10160.64006	13387.06057	11370.13208	12053.82404	12251.96087	12619.0238	13278.51215	11082.77734	13757.09989	12541.87381	13927.59304	13719.25663	16301.72754	14891.12741
2100	2400	9009.03739	10390.60693	8775.12739	11032.11234	7901.04723	10996.68779	8722.09551	8675.16572	10155.81987	9019.02838	9958.18878	9727.34316	9316.48111	9817.6501	9773.77366	10217.22675	8795.97725	12129.88024	10848.0998	12180.89013	11460.09018	11776.38496	11578.15215	9584.54853	10528.38511	9015.72481	10664.33267	8759.69444	12209.70244	8804.87644	10919.86324	10071.10838	8928.50962	11695.23746	11500.12744	9257.71176	9537.19357	10497.03807	10388.5159	8863.90877	11464.50303	11638.94444	11874.65977	11381.673	12539.89844	11371.92134
2400	2700	8237.31099	9007.23771	8048.775	8348.81823	8514.50986	11095.70545	7347.07749	8607.33916	7501.99109	7101.11766	9515.20444	8355.14126	7605.68131	7979.86919	9396.99633	9185.65231	8138.15979	9945.58188	9672.36309	9812.50315	9226.64185	11982.2291	9709.23347	9060.94688	9506.31349	7577.31844	8258.50006	7878.60069	10801.55477	7922.86356	10463.08732	7691.7824	7306.1609	10164.61188	8164.10181	8243.70594	8116.47414	9018.29557	9903.14606	7837.99035	11044.14818	9701.44368	9744.75256	8395.54521	12198.12598	9758.08555
2700	3000	8309.76064	7859.32568	6032.1624	7167.90876	6007.52096	9953.62965	5601.88419	6745.08203	7131.40142	6301.70771	8476.88367	7397.58789	6090.41255	7037.12336	7926.21811	7312.70917	6976.74408	9900.17093	8423.65918	9215.14942	8374.29316	11157.57969	8773.04514	7085.02695	7470.99562	6282.46354	7803.84387	5766.56707	9513.62361	6366.88955	8808.97648	6732.3185	6570.51283	8182.34843	6985.25415	6698.60456	7406.29211	8182.6131	8644.83974	7314.70515	8503.98695	7654.0702	8754.18669	8208.19897	10443.77441	9429.95531
3000	3300	6425.73431	6146.78704	5295.72407	7493.76163	4044.90812	8286.75044	5027.07963	6710.779	6683.85574	6100.36024	7807.18443	6533.71377	6287.79202	6923.23438	6773.30217	7847.51021	6942.31557	8165.72628	6810.39492	8031.01299	7565.00217	8315.05781	8013.45233	5308.119	5517.58667	5916.18579	6492.73854	5670.86307	7891.63897	6699.52535	8709.51497	6005.64218	5623.45746	7013.44628	6416.53345	6730.55178	6432.74902	6552.68651	8266.69044	6659.68595	6666.30061	6845.77582	7723.4313	7576.24435	10621.17676	8452.38155
3300	3600	5957.46629	7749.49729	4584.82451	6380.42627	4784.51328	7166.237	5116.19135	5644.85781	5298.1692	5326.26544	5378.29636	8134.23682	5137.43812	6001.36331	6240.02284	6870.50246	6392.04491	7148.83264	9374.59121	7342.04849	6667.75813	7705.70176	7004.32595	6515.35718	6327.32201	4975.84674	6402.94434	4866.63508	7540.834	5184.76479	6813.12366	5361.85705	4988.93648	7471.36354	5851.53223	5537.3276	5931.19475	6259.67041	6692.57656	5906.14417	7111.95861	6372.02962	7298.43962	6708.01165	9136.13965	7604.07561
3600	3900	6030.27725	6139.04292	4495.23938	6062.76927	4419.0651	7459.69129	5195.27423	7204.59707	6016.31539	5422.48784	7869.70279	6212.83779	5410.82416	5355.24321	6163.95818	7056.56647	5637.79733	7610.35078	6201.79443	6791.70119	6637.40981	9559.28203	7441.05118	7050.75979	6533.74594	5515.51668	5940.6297	5769.62612	6859.71311	6094.03435	5929.962	5462.69076	5058.92536	6138.01763	6060.81531	4989.39686	6013.65007	7025.58934	5579.47828	6595.54761	6885.09285	6406.53266	6751.47464	6750.43879	7701.80298	6727.06673
3900	4200	4887.3949	5548.66828	4663.56472	5443.86641	3822.14798	6903.71519	4886.87931	5175.43818	5365.57454	4745.01352	5149.42477	5901.08804	4834.65406	4952.38754	5429.17397	6526.36	5145.99185	6547.11476	6401.84199	5943.3118	5923.08767	8002.40049	6486.84775	5333.3566	4830.35934	4303.09141	6062.64361	4369.62287	7578.0773	5390.47287	6777.50781	5472.80989	4915.88241	7030.72713	4924.66724	5032.34071	5452.48228	6413.89214	6035.66467	4960.62781	5689.22584	4864.74512	5763.4092	6142.1792	9084.12305	7135.63326
4200	4500	4756.27767	4682.27831	4095.57124	4377.27382	4555.48118	6813.45187	4590.81996	4986.64355	4258.11227	4249.16661	5035.74188	5194.5915	4122.6591	4344.20983	5581.95578	4277.70908	4625.50932	4967.33315	5526.86494	5344.18235	5137.14679	7340.88115	5510.43987	5380.59016	5685.4253	4708.94596	4934.14217	4511.19521	7140.73972	4665.65495	5550.70186	4878.25758	4901.91853	4356.25937	6553.33374	5085.62265	5060.94159	5213.59756	5371.90503	5368.0769	5774.09849	5761.40153	5009.50119	5065.64759	7684.60205	5762.88968
4500	4800	3971.43468	4000.51256	3796.55127	4639.5115	3323.88128	6985.13841	3569.07032	5783.75684	4184.4724	3786.68944	6021.35686	4980.22087	4320.65646	3843.64234	5399.80409	4556.72056	4306.94411	4792.71551	3716.32583	4999.27226	4913.24635	5655.57031	5412.38139	5744.08093	4559.93614	4318.3892	4379.73209	4050.99744	5263.837	4090.84585	5681.38582	4316.27857	4228.86675	5117.98052	3909.33765	4458.73642	4177.32656	4443.33246	5710.30778	4667.42353	5361.53848	4096.91718	4639.02313	4393.57965	4817.00781	4880.9726
4800	5100	5435.95115	7056.53049	4479.20908	3575.13011	4518.29705	5286.20361	4678.50314	4718.48433	5167.10475	4865.22768	4388.10218	5444.83213	3672.33995	4680.28331	5299.41242	5106.55983	4423.94102	6590.5925	7314.94238	5393.84633	5278.36297	6799.92344	6009.26007	4294.243	3665.40926	4995.36001	4900.32856	4849.06048	7220.78192	3938.62115	6628.18075	4178.69172	4327.64368	5372.89846	3633.47473	5147.27163	4258.76765	5499.57843	5739.46012	5097.14687	3937.38336	3809.90302	5197.29517	4584.62365	7664.66089	5601.63624
5100	5400	4712.82653	5825.51557	3258.99409	4374.11205	3471.19092	5762.43451	2421.41253	4054.96514	3969.34569	3717.50951	4956.40601	3888.06338	3337.93798	4057.96748	4830.76729	3548.56682	3674.47455	4620.06046	5148.66914	4852.80354	4600.26323	6186.86182	5287.97209	3807.9531	4506.58626	3925.48222	3774.93704	4248.93321	6979.27852	4586.63582	3853.09607	4193.96441	3636.86426	4978.81866	4494.44147	4309.99679	3841.06057	4444.38577	4204.09183	4401.36538	4393.2079	4812.06489	4779.72152	5542.94236	5928.77612	4897.36546
