frame_start	frame_end	Left-Cerebral-White-Matter	Left-Cerebellum-White-Matter	Left-Cerebellum-Cortex	Left-Thalamus	Left-Caudate	Left-Putamen	Left-Pallidum	Brain-Stem	Left-Hippocampus	Left-Amygdala	CSF	Left-Accumbens-area	Left-VentralDC	Left-choroid-plexus	Right-Cerebral-White-Matter	Right-Cerebellum-White-Matter	Right-Cerebellum-Cortex	Right-Thalamus	Right-Caudate	Right-Putamen	Right-Pallidum	Right-Hippocampus	Right-Amygdala	Right-Accumbens-area	Right-VentralDC	Right-choroid-plexus	AirCavity	Skull	Vermis	Pons	CSF-ExtraCerebral	Head-ExtraCerebral	ctx-lh-bankssts	ctx-lh-caudalanteriorcingulate	ctx-lh-caudalmiddlefrontal	ctx-lh-cuneus	ctx-lh-entorhinal	ctx-lh-fusiform	ctx-lh-inferiorparietal	ctx-lh-inferiortemporal	ctx-lh-isthmuscingulate	ctx-lh-lateraloccipital	ctx-lh-lateralorbitofrontal	ctx-lh-lingual	ctx-lh-medialorbitofrontal	ctx-lh-middletemporal	ctx-lh-parahippocampal	ctx-lh-paracentral	ctx-lh-parsopercularis	ctx-lh-parsorbitalis	ctx-lh-parstriangularis	ctx-lh-pericalcarine	ctx-lh-postcentral	ctx-lh-posteriorcingulate	ctx-lh-precentral	ctx-lh-precuneus	ctx-lh-rostralanteriorcingulate	ctx-lh-rostralmiddlefrontal	ctx-lh-superiorfrontal	ctx-lh-superiorparietal	ctx-lh-superiortemporal	ctx-lh-supramarginal	ctx-lh-frontalpole	ctx-lh-temporalpole	ctx-lh-transversetemporal	ctx-lh-insula	ctx-rh-bankssts	ctx-rh-caudalanteriorcingulate	ctx-rh-caudalmiddlefrontal	ctx-rh-cuneus	ctx-rh-entorhinal	ctx-rh-fusiform	ctx-rh-inferiorparietal	ctx-rh-inferiortemporal	ctx-rh-isthmuscingulate	ctx-rh-lateraloccipital	ctx-rh-lateralorbitofrontal	ctx-rh-lingual	ctx-rh-medialorbitofrontal	ctx-rh-middletemporal	ctx-rh-parahippocampal	ctx-rh-paracentral	ctx-rh-parsopercularis	ctx-rh-parsorbitalis	ctx-rh-parstriangularis	ctx-rh-pericalcarine	ctx-rh-postcentral	ctx-rh-posteriorcingulate	ctx-rh-precentral	ctx-rh-precuneus	ctx-rh-rostralanteriorcingulate	ctx-rh-rostralmiddlefrontal	ctx-rh-superiorfrontal	ctx-rh-superiorparietal	ctx-rh-superiortemporal	ctx-rh-supramarginal	ctx-rh-frontalpole	ctx-rh-temporalpole	ctx-rh-transversetemporal	ctx-rh-insula
0	30	4.943459987640381	5.283353328704834	4.093245506286621	3.9145960807800293	5.920445919036865	2.4845833778381348	1.156200647354126	4.513422966003418	7.835803985595703	1.8286317586898804	6.00198221206665	1.3484348058700562	8.985625267028809	1.1998523473739624	7.279311656951904	16.780399322509766	14.016839027404785	8.41964054107666	8.013105392456055	2.0225446224212646	7.175902843475342	4.634222507476807	2.701616048812866	0.5508019924163818	2.189460039138794	1.5056761503219604	6.7571916580200195	7.731330871582031	23.869190216064453	2.0422744750976562	5.999245643615723	7.22566032409668	0.33339110016822815	13.358942985534668	5.60977840423584	1.5569885969161987	0.18371635675430298	2.2149581909179688	5.352834701538086	1.7721558809280396	1.9335567951202393	9.523905754089355	2.9807775020599365	3.1400840282440186	4.552021026611328	1.779944896697998	6.328479766845703	0.8953000903129578	2.25701904296875	3.282784938812256	3.671535015106201	1.6828347444534302	3.09499454498291	2.2481119632720947	2.5756237506866455	1.3039551973342896	6.517469882965088	2.6676785945892334	5.327381134033203	1.171270728111267	1.6606295108795166	12.516929626464844	1.038879156112671	1.7978410720825195	0.13884583115577698	1.1797559261322021	1.973315954208374	14.409628868103027	8.93899154663086	1.4229497909545898	3.9772696495056152	11.269024848937988	9.958918571472168	23.53865623474121	1.6406134366989136	5.935013771057129	3.3881382942199707	5.323054313659668	4.744609832763672	11.301136016845703	25.584726333618164	2.047762155532837	5.771364688873291	16.317811965942383	11.257019996643066	0.7285609841346741	8.885332107543945	3.9632651805877686	4.909628391265869	1.8415932655334473	4.982796669006348	10.869592666625977	7.978445053100586	1.9875783920288086	14.8744478225708	18.216115951538086	3.5092947483062744	9.76358699798584	3.686891794204712	4.335175514221191
30	60	888.8802490234375	776.6602172851562	1041.4918212890625	1277.9493408203125	919.9541015625	1456.26220703125	1139.8204345703125	924.4286499023438	1175.2425537109375	1389.421630859375	585.4254760742188	1050.6170654296875	1031.5709228515625	962.4777221679688	897.5360107421875	697.8706665039062	991.3491821289062	1045.6719970703125	865.4380493164062	1601.140380859375	1014.9224853515625	1039.8310546875	1066.457275390625	1485.3765869140625	1096.473388671875	846.8800048828125	184.13905334472656	291.6221618652344	901.1146850585938	902.1990966796875	1069.89453125	267.6687927246094	1765.4676513671875	1304.2802734375	1310.7354736328125	1913.211181640625	1141.8902587890625	1179.38134765625	1085.3748779296875	953.6271362304688	1365.7327880859375	1171.1278076171875	1247.1678466796875	1640.0338134765625	1242.419677734375	994.2681884765625	1134.886474609375	1121.1671142578125	1348.1783447265625	1099.6221923828125	1215.6185302734375	1281.0836181640625	1228.8919677734375	1408.71142578125	1210.6629638671875	1196.384033203125	1675.3062744140625	1127.302734375	1177.578857421875	1208.2886962890625	1375.239013671875	1249.7557373046875	1207.732421875	918.6000366210938	2534.927978515625	1693.4632568359375	1514.02099609375	1762.2021484375	1279.531005859375	1536.871337890625	1321.9320068359375	996.8947143554688	1127.4669189453125	848.7222900390625	1301.8038330078125	1144.07177734375	1202.6524658203125	1546.883056640625	1411.2537841796875	998.7833862304688	1165.3651123046875	1238.95263671875	1528.5279541015625	988.6112670898438	1165.7293701171875	1481.3907470703125	1260.824951171875	1459.1695556640625	1216.2310791015625	1389.376708984375	1870.593505859375	1134.734375	1176.5	1117.9737548828125	1367.999267578125	1302.6395263671875	998.0673828125	1025.05419921875	2353.839111328125	1692.7479248046875
60	90	7193.10693359375	7846.12646484375	10170.537109375	9911.2666015625	7399.474609375	11533.169921875	8001.8720703125	7857.04296875	9274.28515625	7516.2265625	3678.8525390625	11491.0615234375	7934.93798828125	7624.5390625	6947.25390625	7551.3388671875	9828.896484375	10923.9658203125	7621.3017578125	11382.5009765625	8023.96826171875	9316.6650390625	7858.6298828125	10356.83203125	8177.75732421875	7816.06005859375	1764.11474609375	2268.85791015625	9557.365234375	8047.17578125	8094.63818359375	2528.4794921875	12258.03515625	10314.0576171875	10599.75	13046.2451171875	7440.7060546875	9874.1923828125	10200.3876953125	9760.962890625	10823.462890625	10272.0419921875	10679.2197265625	11855.220703125	10343.857421875	9878.8662109375	8775.5615234375	9197.4013671875	10806.4287109375	11083.1865234375	11205.5224609375	12970.953125	10322.3583984375	11271.6494140625	10404.23046875	11515.0068359375	10733.6240234375	10556.2841796875	9784.3681640625	10390.99609375	10659.794921875	10731.0458984375	9901.9765625	7645.33642578125	15730.4892578125	11241.751953125	10801.912109375	11162.953125	10456.7841796875	12427.283203125	8656.5185546875	8647.2177734375	10108.2529296875	8585.6962890625	11168.2763671875	10187.62109375	10020.931640625	11451.50390625	10510.287109375	9723.7216796875	9221.482421875	11039.546875	10979.9248046875	10285.0263671875	10256.5224609375	12950.453125	9478.5263671875	12370.3671875	10338.640625	11456.8154296875	10617.7958984375	10152.8486328125	10310.8427734375	9126.244140625	10327.5830078125	10032.4384765625	9381.4833984375	7414.083984375	14633.2177734375	10220.0478515625
90	120	15313.2373046875	16309.4462890625	21232.0859375	19990.052734375	16105.65625	24530.51953125	16690.291015625	14582.0166015625	18471.99609375	16868.4296875	7376.05126953125	21854.75390625	15618.2587890625	15358.8759765625	14724.689453125	15656.744140625	19970.994140625	21257.220703125	16718.0625	23531.78125	16205.77734375	17550.24609375	15529.4482421875	20569.205078125	15571.3251953125	14461.130859375	3429.12744140625	4218.5	21819.099609375	16763.95703125	15643.0859375	4712.09716796875	25490.55859375	20131.29296875	22722.076171875	28253.072265625	15551.1953125	20852.32421875	21861.458984375	20976.60546875	22856.134765625	22974.908203125	21537.947265625	24949.896484375	20477.4375	20801.12890625	17114.7734375	20650.35546875	22355.705078125	22462.564453125	22877.328125	28075.177734375	21681.09765625	23958.033203125	21915.1328125	24016.876953125	19447.9453125	22985.09375	20083.20703125	21492.0859375	21025.919921875	22697.439453125	19548.953125	16066.53125	30118.54296875	20767.88671875	21230.568359375	23078.203125	22378.654296875	26313.359375	16903.951171875	18944.90234375	21023.623046875	18450.12890625	22831.703125	23111.84765625	21117.294921875	23812.779296875	21065.4453125	18956.044921875	16490.93359375	21279.09765625	21762.177734375	22759.2421875	21050.845703125	25432.900390625	20542.783203125	25635.27734375	20966.08203125	23417.41015625	22280.046875	21680.00390625	21086.517578125	20084.478515625	20199.9296875	20337.044921875	19161.421875	15096.259765625	27759.47265625	19672.494140625
120	150	23222.9609375	25541.15234375	32249.119140625	30104.681640625	23440.84765625	40216.15625	24480.603515625	23402.333984375	27535.39453125	24456.57421875	10762.0673828125	34419.7734375	23981.4296875	20842.6015625	22241.501953125	24626.611328125	30361.26171875	32013.3203125	23976.677734375	36661.24609375	25911.099609375	25794.880859375	22535.654296875	31274.3203125	23107.017578125	21593.9453125	5004.2939453125	6111.068359375	32302.701171875	25536.37109375	22799.91796875	6910.1162109375	38334.80859375	32870.671875	35799.03125	40946.21875	23699.41796875	31986.79296875	32540.3203125	31637.28125	33130.6484375	34667.41015625	33317.078125	37716.16015625	32294.607421875	32354.130859375	27761.580078125	32687.609375	33986.5546875	34000.6953125	34387.1484375	41604.8046875	32082.767578125	35558.5390625	33556.515625	37136.765625	28905.421875	34334.0390625	30244.703125	32740.146484375	31906.77734375	33351.359375	30328.365234375	23811.365234375	43609.84375	30907.443359375	30173.494140625	33243.03515625	34065.67578125	39151.91015625	25038.3984375	27800.6015625	31065.013671875	28495.521484375	32881.3203125	34403.26171875	31982.263671875	35355.953125	32262.6796875	29343.177734375	26591.47265625	32159.775390625	33460.80859375	34605.78515625	31976.08984375	40494.15234375	30894.943359375	37242.87109375	32327.263671875	34775.76171875	31939.67578125	32952.44921875	31365.185546875	29737.248046875	30323.056640625	31475.078125	27733.8203125	23195.220703125	43204.12890625	28717.06640625
150	180	29171.021484375	30997.833984375	40589.58203125	37776.01171875	31526.583984375	48092.89453125	31878.228515625	28479.67578125	33738.27734375	30015.021484375	13183.9033203125	43620.9921875	28967.666015625	24625.185546875	27775.353515625	30437.095703125	37774.26171875	40176.5703125	31813.703125	44895.6796875	30996.91015625	31826.19921875	28505.0	38778.7734375	31505.7578125	25093.962890625	5891.37451171875	6997.29052734375	38722.12890625	32571.125	27117.43359375	8153.43359375	46956.8515625	35576.27734375	42914.7265625	51108.41796875	27900.255859375	39425.2265625	40953.25	39935.390625	42165.24609375	43497.41015625	41532.02734375	46274.78515625	39038.30859375	40292.58203125	32739.984375	38154.28515625	41652.84375	41955.39453125	43542.99609375	52317.52734375	40359.8125	45817.0546875	41658.7890625	45413.390625	35058.875	43204.44921875	38209.109375	39805.140625	39098.48828125	41622.01171875	36436.76171875	29462.072265625	55560.03515625	38163.30859375	38140.34765625	41696.3203125	43120.20703125	47956.80859375	31515.396484375	36086.83203125	39540.76171875	35709.94921875	40708.95703125	43215.88671875	39574.08984375	45218.40234375	38322.12890625	36211.91796875	32293.990234375	39634.16015625	40489.140625	43903.75	39860.7421875	50452.17578125	37352.09765625	47697.47265625	39508.61328125	42749.29296875	38401.625	41231.0703125	38678.08203125	36713.078125	35852.39453125	38177.3828125	35726.69921875	29089.298828125	49800.73046875	35193.3828125
180	240	30737.052734375	33587.08984375	42748.40625	39657.0859375	32677.494140625	51370.73046875	34123.33984375	28809.529296875	33897.4609375	29749.421875	13305.5830078125	44847.1171875	30861.345703125	22888.55859375	29168.146484375	31411.6640625	38990.53515625	41687.07421875	33284.01953125	47663.7421875	32491.748046875	33059.828125	28357.603515625	41694.36328125	32381.576171875	24564.9375	5652.494140625	6979.447265625	41893.28515625	32876.15234375	27525.947265625	8366.701171875	49274.296875	39440.03125	45505.515625	53289.63671875	29049.611328125	41875.2734375	43126.1171875	43057.00390625	43357.10546875	45898.2890625	43046.93359375	47737.43359375	40259.0546875	42339.71875	34513.046875	40913.63671875	43467.33203125	44447.375	44624.33203125	54214.73046875	41517.7734375	46687.44140625	43460.703125	47166.15625	36847.63671875	45518.3515625	39544.60546875	41607.2890625	40626.01953125	43728.69921875	38315.7890625	31958.37890625	54696.1875	39310.52734375	41046.22265625	41802.2109375	44851.76953125	50235.5078125	26689.580078125	37596.1796875	41321.15234375	37627.0234375	42107.578125	44933.2421875	41810.3046875	46757.09375	40263.7734375	38351.76171875	32620.42578125	41930.6484375	42636.40234375	46613.08984375	41412.359375	51253.9609375	39183.55078125	48908.234375	41357.9609375	45746.0859375	38919.16015625	43242.953125	40968.328125	38608.39453125	38445.8984375	40391.99609375	36907.140625	28700.46875	51366.39453125	36300.7734375
240	300	30327.646484375	33460.7890625	41701.22265625	39345.796875	32278.283203125	49933.6640625	34787.984375	28614.7578125	32905.80078125	31225.421875	12740.9775390625	43901.08203125	31382.13671875	20321.0546875	28829.447265625	31413.2578125	38446.69921875	41442.8125	31856.341796875	46712.65625	33707.9140625	31340.62109375	28941.138671875	40022.15625	31912.037109375	22852.8125	5659.26953125	6876.43994140625	39818.9453125	32855.15234375	26344.78125	8475.89453125	47128.1328125	39929.87890625	43908.9609375	50485.4921875	28881.921875	40577.24609375	41512.859375	42181.1328125	42350.5390625	43747.6328125	42147.484375	46283.2578125	38520.1640625	41569.0234375	32801.75390625	39760.109375	41951.8046875	42483.15625	42745.99609375	52332.171875	40424.2109375	45081.68359375	41621.36328125	46281.4921875	37278.88671875	43724.35546875	38383.40234375	40051.5546875	39507.83984375	42348.51171875	37956.6640625	31373.927734375	51701.109375	39341.0625	40369.171875	40502.44921875	43657.78125	48077.26953125	27865.796875	36981.07421875	40245.68359375	37179.56640625	41510.1015625	42939.17578125	40988.61328125	44961.65234375	39220.07421875	37239.6015625	31988.072265625	39549.828125	41738.3984375	44385.35546875	40281.60546875	49657.9765625	37943.203125	47665.33203125	40004.63671875	44289.93359375	37441.125	41920.90234375	39412.55859375	37433.9765625	37082.04296875	39059.9375	35441.1953125	30044.033203125	45915.28515625	35033.203125
300	360	29215.798828125	32580.169921875	40332.99609375	37688.5	30313.048828125	46969.31640625	33539.13671875	28219.056640625	31297.935546875	29431.630859375	12222.9423828125	43290.35546875	30331.52734375	18096.474609375	27953.94140625	31015.791015625	36806.84765625	39484.69140625	29997.8125	43780.265625	31883.451171875	29934.54296875	29125.958984375	39308.0703125	30895.65234375	20221.20703125	5532.02392578125	6690.4462890625	38203.34375	31399.578125	24810.181640625	8462.126953125	45441.67578125	35807.9765625	40437.94140625	46741.61328125	27377.658203125	38653.578125	39201.7109375	40000.10546875	38447.22265625	40830.359375	40401.93359375	43065.16015625	37687.13671875	40117.98046875	31507.23828125	37024.86328125	39867.3125	40158.796875	40950.7734375	48942.91796875	37763.16796875	43418.39453125	39012.06640625	42790.91015625	35568.84375	41482.69921875	36404.11328125	38097.48828125	38153.84375	39955.0234375	33971.51953125	30531.20703125	47633.48046875	37073.859375	37298.57421875	38229.6015625	40959.0234375	45279.7109375	27809.056640625	35589.24609375	38163.30078125	35864.76953125	38527.1953125	40569.7421875	39229.671875	42423.33984375	37567.53515625	35435.24609375	32121.064453125	36822.83984375	39608.0625	41125.4140625	37811.9375	47123.76171875	35920.515625	44137.14453125	38071.7890625	41428.4765625	36243.109375	39968.04296875	37555.2421875	35260.203125	35828.03125	37152.16015625	33461.1875	28928.7890625	42362.36328125	34299.4140625
360	480	27236.650390625	30103.982421875	36190.6171875	34934.234375	27939.310546875	42516.76953125	32621.748046875	26091.861328125	28835.37890625	28328.71875	11108.5615234375	40393.70703125	29149.234375	16609.39453125	25900.990234375	28348.44140625	33559.17578125	37587.140625	27558.037109375	39904.84765625	30697.146484375	27655.208984375	27585.439453125	34178.5703125	29774.578125	17564.240234375	5173.6318359375	6384.3583984375	34423.69921875	29753.392578125	22150.6171875	8506.5126953125	40453.35546875	33260.03515625	36445.38671875	41500.3203125	26035.4140625	34828.46875	35226.78125	36535.87890625	35111.53515625	36244.2265625	36077.2578125	38133.34765625	34200.234375	35882.52734375	29555.94921875	33900.6875	35309.12890625	34841.6015625	35946.15625	43284.671875	33556.15625	38170.91015625	35074.07421875	38333.23828125	32629.65234375	36744.0703125	32965.90234375	33936.1328125	34445.1328125	35702.56640625	31559.38671875	27932.388671875	40026.03515625	33994.22265625	33716.02734375	34289.1484375	36180.890625	39429.62109375	25450.220703125	32772.796875	34150.51953125	32931.17578125	34936.79296875	35440.6796875	35152.37890625	36825.4765625	33993.38671875	32123.435546875	28980.912109375	34071.21875	34892.69140625	36574.296875	33790.65234375	40424.73046875	31801.69140625	39464.84765625	34076.3359375	36575.0546875	33032.07421875	35706.6484375	33429.3984375	31534.884765625	32285.1953125	33350.29296875	30361.306640625	27346.072265625	36980.82421875	30974.234375
480	600	24466.224609375	27560.048828125	31306.310546875	31912.13671875	23462.611328125	37245.2265625	29449.46484375	23955.7421875	25727.232421875	26492.736328125	10057.9267578125	33266.76953125	26290.421875	13560.6025390625	23328.0546875	26113.1328125	29059.490234375	33587.7109375	22848.30078125	34360.7421875	28685.689453125	24830.88671875	26081.798828125	30923.91015625	27121.35546875	15846.6162109375	4663.494140625	5966.79931640625	29298.95703125	27160.2578125	18876.32421875	8357.212890625	34615.56640625	28454.177734375	30458.048828125	34886.9453125	22759.154296875	30701.810546875	30128.744140625	31611.82421875	29527.810546875	30170.123046875	30994.779296875	31900.44140625	29816.732421875	30715.71875	25712.015625	29137.427734375	30021.265625	28927.041015625	30577.361328125	34583.4453125	28243.017578125	32259.56640625	29803.234375	32224.357421875	29217.50390625	31176.9921875	28393.21484375	28406.001953125	29583.302734375	30165.515625	26671.5703125	25244.29296875	33801.4375	29413.45703125	29815.166015625	29170.03125	31604.826171875	33072.03125	22575.361328125	28387.57421875	29360.287109375	28871.283203125	29323.7109375	30720.2578125	30102.814453125	31491.404296875	29480.3359375	28097.75390625	25594.46875	29362.921875	30113.64453125	31339.39453125	29147.109375	33058.26953125	27213.517578125	32958.48046875	28730.78125	31361.927734375	28357.18359375	30910.28515625	28967.95703125	27079.685546875	28527.474609375	27978.125	25623.615234375	24811.490234375	29926.04296875	27713.205078125
600	900	20742.552734375	23279.142578125	24401.841796875	26384.9453125	17441.546875	28862.65234375	25260.802734375	20050.396484375	20535.478515625	22374.783203125	8298.1494140625	25352.2421875	23421.693359375	10860.98046875	19816.3828125	22039.708984375	22774.337890625	27578.828125	17612.369140625	26689.6328125	24517.44921875	20135.87109375	20938.251953125	23953.58984375	23193.18359375	12554.6953125	4160.6328125	5439.21484375	22235.734375	22895.30859375	14552.267578125	8078.10400390625	26359.546875	22997.8359375	22983.099609375	25923.404296875	18905.89453125	24221.70703125	22866.509765625	24800.318359375	23114.51953125	22883.32421875	23894.072265625	24183.83984375	23303.626953125	24174.220703125	20923.216796875	22456.697265625	22978.056640625	22599.146484375	23477.837890625	26424.423828125	21760.484375	25266.626953125	22796.52734375	25260.5390625	22579.767578125	23671.91796875	21944.5625	21930.212890625	23299.947265625	23242.052734375	19940.869140625	21311.8515625	25368.435546875	23616.46875	23035.75	22884.70703125	24189.91015625	24642.962890625	18474.384765625	22737.80859375	22793.34375	22762.703125	22732.4921875	23248.16015625	23596.892578125	24063.169921875	22818.15625	22164.26953125	21145.5	22287.54296875	23503.34375	24096.123046875	22409.369140625	24884.19140625	20982.09765625	25224.982421875	22525.58203125	23754.359375	22046.2734375	23849.76171875	22347.8828125	20677.630859375	22489.791015625	21835.3359375	19999.611328125	20260.94140625	22416.837890625	22038.31640625
900	1200	17140.333984375	19077.75390625	17218.833984375	19939.4453125	12654.0244140625	20689.673828125	20775.595703125	15955.69140625	16086.3740234375	17184.267578125	6844.29638671875	18221.6015625	18807.900390625	9004.0263671875	16491.798828125	18154.201171875	16253.6416015625	20910.931640625	12724.7509765625	19268.763671875	20020.4375	15847.279296875	16800.76953125	17266.462890625	19428.548828125	10674.7919921875	3630.599853515625	4930.322265625	15770.98046875	18720.265625	10836.2412109375	7727.033203125	19814.0859375	17353.93359375	16926.900390625	18682.4921875	14421.7919921875	17837.83984375	16709.9296875	18323.830078125	16857.30078125	16622.912109375	17510.212890625	17438.1015625	17216.919921875	17610.025390625	15900.001953125	16245.646484375	16826.134765625	16206.1201171875	17254.080078125	19084.927734375	15916.583984375	18644.462890625	16613.34765625	17863.55078125	16956.09375	17336.462890625	16252.8310546875	16037.9140625	17487.478515625	16873.03125	14476.63671875	16613.828125	18163.31640625	17770.70703125	17219.310546875	17243.484375	18074.138671875	17747.23046875	13851.697265625	17282.21484375	16882.896484375	16819.541015625	16987.515625	17051.3671875	17472.248046875	17804.109375	16676.349609375	16354.5703125	16688.98046875	16407.419921875	17398.51953125	17854.388671875	16898.541015625	17746.94140625	15632.08203125	18545.03125	16717.1875	17506.044921875	17020.828125	17921.64453125	16448.890625	15310.51171875	16987.470703125	16279.19921875	13960.0693359375	16092.92578125	16357.5439453125	16695.89453125
1200	1500	15200.7138671875	16262.9990234375	13519.341796875	16086.2392578125	9774.6376953125	16137.359375	17264.09765625	13491.9814453125	13651.396484375	13927.1630859375	5967.474609375	14509.0224609375	16097.0625	7517.98681640625	14685.69140625	15579.716796875	12815.427734375	16724.1953125	9812.41796875	15429.9443359375	17115.640625	13307.5166015625	13812.0322265625	13075.71484375	16070.5869140625	9376.8662109375	3354.976318359375	4733.2353515625	12204.5615234375	16377.6962890625	9046.6767578125	7529.22998046875	16139.8173828125	13952.9326171875	13738.046875	15299.6767578125	11944.0263671875	15025.44921875	13810.8779296875	15174.3701171875	14380.2626953125	13791.1572265625	14715.486328125	14669.2470703125	14182.8125	14214.75390625	13163.3564453125	12982.5703125	13801.9365234375	13142.30078125	14089.009765625	15781.2021484375	13203.9814453125	15244.3583984375	13561.669921875	14808.6865234375	14382.234375	14250.1953125	13145.9736328125	13197.484375	14222.3837890625	13907.45703125	12379.0634765625	12830.677734375	14951.6044921875	14819.6376953125	14246.9951171875	13922.763671875	15222.34765625	14756.2158203125	11692.1484375	14144.08984375	14123.56640625	13969.0703125	14392.669921875	14622.2119140625	14489.490234375	14704.8837890625	13961.916015625	13466.087890625	13559.443359375	13337.357421875	14494.2978515625	14839.103515625	14049.296875	15037.857421875	12956.111328125	14936.6982421875	13786.447265625	14424.017578125	13640.7802734375	14919.998046875	13735.0439453125	12716.115234375	14109.8134765625	13632.5615234375	11830.98046875	13223.5166015625	13643.0361328125	13669.728515625
1500	1800	13836.189453125	14396.7734375	11081.572265625	13269.1953125	8347.3857421875	13807.078125	15314.705078125	11648.6201171875	11350.4716796875	12227.873046875	5552.87841796875	11685.470703125	13755.8564453125	7243.162109375	13456.423828125	13908.78515625	10639.5556640625	13899.9755859375	8800.3193359375	12993.751953125	14995.3427734375	11682.0390625	12466.595703125	11768.009765625	13892.0908203125	8304.978515625	3223.87060546875	4782.84423828125	10529.509765625	14023.48828125	8144.80615234375	7394.6884765625	14160.19140625	12528.9580078125	11889.732421875	13643.7216796875	10210.0537109375	13045.23828125	12130.404296875	13376.8173828125	12342.6220703125	12385.55859375	12714.3125	12985.595703125	12461.5546875	12578.1357421875	11442.5234375	11436.1865234375	12080.7392578125	11527.0068359375	12840.7099609375	13971.759765625	11568.001953125	13315.98046875	11951.58984375	12893.6923828125	12388.2900390625	12551.82421875	11511.962890625	11488.927734375	12422.2900390625	12408.6650390625	9798.9375	11475.2255859375	13225.2607421875	12951.7529296875	12783.296875	12147.9951171875	13501.6884765625	13198.771484375	10683.296875	12605.0283203125	12508.6962890625	12109.0947265625	12481.2958984375	12980.931640625	12288.57421875	13077.16796875	12398.83203125	11799.3466796875	12082.607421875	11559.494140625	12548.8779296875	12692.59375	12509.2939453125	13301.71484375	11543.6884765625	13213.4267578125	12237.8271484375	12702.041015625	11895.6357421875	13099.138671875	11949.1953125	11301.876953125	12405.9267578125	11907.4111328125	9907.5087890625	11505.09765625	12354.02734375	12205.716796875
1800	2100	12938.486328125	13069.0146484375	9580.3056640625	11585.9365234375	7213.01904296875	12229.9794921875	13837.716796875	10660.970703125	10365.365234375	11201.240234375	5186.015625	10542.50390625	12129.3271484375	6949.1650390625	12674.1123046875	12795.0458984375	9294.3720703125	12283.806640625	8525.4931640625	11666.029296875	13677.306640625	10122.3486328125	11351.12109375	9902.0869140625	13009.421875	8153.185546875	3114.138916015625	4731.646484375	9064.8720703125	13092.1962890625	7537.794921875	7309.95751953125	12902.23828125	11379.46875	10988.2001953125	12327.2197265625	8917.0888671875	11971.69921875	11151.703125	12212.4609375	11563.6962890625	11668.158203125	11575.580078125	12138.3564453125	11163.0419921875	11761.3740234375	10385.9248046875	9689.380859375	11078.7900390625	10737.44921875	11893.130859375	12898.8466796875	10831.7919921875	11688.1201171875	10883.044921875	11613.4814453125	11115.712890625	11596.9951171875	10433.5830078125	10667.5849609375	11392.9091796875	11438.6826171875	9228.8310546875	9917.537109375	13167.8095703125	11816.630859375	12158.88671875	10839.4384765625	11941.2041015625	12096.5859375	9630.19921875	11623.53125	11557.0888671875	11005.4521484375	11352.1279296875	12260.478515625	11280.041015625	12187.6259765625	11427.021484375	10852.26953125	11251.2099609375	10670.8779296875	11359.05859375	11419.43359375	11270.529296875	12772.6748046875	10404.4365234375	11877.798828125	10933.486328125	11450.6591796875	11299.234375	12013.2529296875	11026.443359375	10471.3759765625	11263.0029296875	10884.92578125	9447.1279296875	10609.9677734375	11452.3564453125	10853.5751953125
2100	2400	12058.837890625	12202.3408203125	8327.3369140625	9901.537109375	6396.78173828125	10790.7646484375	12625.34765625	9302.8876953125	9156.923828125	9217.4501953125	4775.859375	9147.71875	11082.26171875	5733.49560546875	11864.93359375	11715.21484375	8083.177734375	10761.5478515625	7534.95751953125	10389.4951171875	12189.78515625	9641.2421875	9743.3984375	8768.076171875	11396.4091796875	7467.33642578125	2963.0068359375	4598.16748046875	8164.27490234375	11817.458984375	7016.83349609375	7193.5576171875	12031.2080078125	9983.380859375	10205.0615234375	11630.6875	8081.23291015625	11083.4560546875	10263.1337890625	11111.798828125	10450.25390625	10629.26171875	10409.787109375	11366.7021484375	10608.048828125	10464.0126953125	9138.9912109375	8721.849609375	10225.3447265625	9389.4345703125	11000.2587890625	11682.05078125	9822.56640625	10792.9228515625	9802.515625	10936.384765625	10279.51953125	10651.4072265625	9553.736328125	9842.1123046875	10323.625	10318.525390625	8529.79296875	9480.939453125	11205.095703125	10873.6357421875	11057.37890625	10215.287109375	11359.734375	11141.5400390625	8706.986328125	10636.2763671875	10622.1953125	10207.86328125	11076.3056640625	11337.1416015625	10347.447265625	11316.4375	10431.0966796875	10015.6416015625	10022.6044921875	9655.943359375	10655.7841796875	10558.669921875	10766.5107421875	11941.4501953125	9696.216796875	10537.24609375	10150.7109375	10353.5673828125	10279.044921875	11213.283203125	10143.72265625	9660.6572265625	10310.3955078125	10036.3525390625	8767.87890625	9732.9755859375	10883.76171875	10244.5556640625
