frame_start	frame_end	Left-AV	Left-CeM	Left-CL	Left-CM	Left-LD	Left-LGN	Left-LP	Left-L-Sg	Left-MDl	Left-MDm	Left-MGN	Left-MV(Re)	Left-Pf	Left-PuA	Left-PuI	Left-PuL	Left-PuM	Left-VA	Left-VAmc	Left-VLa	Left-VLp	Left-VM	Left-VPL	Right-AV	Right-CeM	Right-CL	Right-CM	Right-LD	Right-LGN	Right-LP	Right-L-Sg	Right-MDl	Right-MDm	Right-MGN	Right-MV(Re)	Right-Pc	Right-Pf	Right-PuA	Right-PuI	Right-PuL	Right-PuM	Right-VA	Right-VAmc	Right-VLa	Right-VLp	Right-VM	Right-VPL
0	30	197.47299	296.60821	153.89011	341.56736	200.64846	641.78765	333.42434	699.62911	181.40224	237.07727	518.1161	443.46877	356.97919	407.31495	422.31226	179.45015	377.38249	456.44664	529.6209	193.25575	243.42417	353.30111	278.56124	121.29909	202.75062	144.40474	344.17426	221.61857	423.19834	252.26822	229.28032	169.09657	289.50576	353.17762	419.73751	87.46858	299.79024	422.54655	408.18984	296.70805	441.03298	239.79213	304.04968	185.55511	196.49231	260.48702	348.22321
30	60	6136.53968	5653.94858	9734.8365	8012.01158	13113.07096	10011.86905	10575.78294	8497.78618	7824.72377	9297.48935	7473.20796	6517.53524	8524.35046	10215.16319	9839.77982	8493.7452	11145.64934	5980.93442	5326.92109	5721.38466	6383.39177	6161.63086	6036.89823	6024.4972	7540.40107	8542.94083	6947.15327	9651.05146	10132.2526	10099.6562	6774.18994	8278.2667	9106.66979	8079.28863	8875.49482	7493.68359	7702.6498	8944.86284	7990.06705	8097.97625	9769.24885	6434.80749	8773.22872	6286.83383	6777.13391	6158.23901	6796.73095
60	90	14474.15784	14985.96704	20517.90655	16745.79391	24673.59418	19385.67028	25168.45516	17081.21319	18136.69291	20048.92035	16747.54927	15355.33569	20411.26126	22072.69393	18187.05345	17980.4208	22097.25467	14221.24385	13854.99434	14426.41728	16123.87899	17635.26228	16430.00101	16644.01693	14047.93221	23044.07139	15630.75559	25613.34728	19916.40349	25373.53054	15922.15444	18132.56502	19202.33713	16404.06882	16062.97344	11181.37305	19310.92509	19880.0005	18581.58901	18512.96178	20480.9709	15474.55814	14363.01367	14923.76041	14997.28432	15168.10596	15493.60025
90	120	24522.64151	23884.30837	36572.60991	24106.3705	40097.18496	28597.77955	38223.13285	28568.58933	27079.84854	31312.5214	24887.57573	28686.57845	28280.52571	34005.8155	30614.8724	28845.87037	36216.41458	22139.02114	23585.3375	20752.234	22363.26877	27180.81864	23683.7468	23116.27451	21247.61894	35567.3783	25968.94341	38656.22899	32350.2578	39827.82574	29161.26172	28110.02203	31075.99133	27575.63003	23938.27676	20028.92578	27265.03359	35295.58608	30336.95098	29734.03381	34506.94422	21964.62222	19532.5639	20306.67818	23225.12313	24655.16797	25024.11511
120	150	28664.06346	29380.4116	40524.51385	34245.88857	45443.07852	40333.57922	45268.61484	36474.75289	32139.92067	38609.80316	33282.32393	31775.75781	34229.44173	43372.22421	38903.91013	40191.21047	45808.48952	28663.49593	27927.53516	26007.05889	28484.26719	36238.32199	31403.93847	31849.04535	29234.14754	43274.63759	36724.21606	46419.96561	38011.31061	50979.12289	37597.96816	36447.32414	41092.73553	31366.65628	29524.49648	30449.35352	39544.42743	44819.64588	37587.46427	35744.45895	44603.1218	29088.71604	27444.16155	26915.97065	29524.7046	26400.24316	31257.2033
150	180	32223.28325	35444.04834	48517.6102	38454.5277	53417.145	37016.45102	55523.27083	41320.26698	38091.78987	43033.61653	32254.11885	37970.89681	41385.19709	50206.61036	39508.33611	40799.00394	50432.59837	33129.85477	35179.43867	30513.76876	32374.8616	38011.23661	32682.57047	31262.93873	31623.41957	50983.48821	37334.12085	53849.88253	37372.75453	55750.21907	34418.071	41012.24083	43038.22073	30860.05833	35161.11133	30837.41797	40654.21936	47933.79929	38110.15795	38913.73061	46882.9599	29760.22712	30829.88895	30567.04226	33477.34059	26897.50391	34449.86815
180	240	31551.8025	35582.9791	45360.31795	38217.67002	50164.51176	35567.31232	53385.10928	41328.13859	40218.779	44078.78498	31508.01165	35001.11979	41774.36136	50927.20525	39224.87855	42560.22692	50733.92213	32447.12036	33347.78555	30027.12962	33417.53743	39321.00056	34387.86084	31768.25216	34001.67773	47914.93575	37419.3775	50028.85575	36002.44095	53047.92771	36279.81348	40113.78254	43051.86902	29190.25166	34251.05352	32782.33594	41857.49043	49714.80532	35690.89891	38741.07705	46609.19195	30556.28685	31489.61635	29969.99063	33520.46643	29456.20996	34799.77807
240	300	32145.47094	33642.09531	46414.81984	36568.19198	49227.7218	33736.05252	52348.81417	39364.0681	39590.71369	42562.34126	32324.28064	35656.31673	40564.12997	47771.40049	38695.02068	42133.86301	48624.23949	31813.97707	32312.63945	30232.57215	33579.24008	40395.17969	33358.45843	33121.5951	33474.71691	47283.45878	38499.54408	50232.22571	34515.63891	51965.46425	38165.93916	37920.09246	40123.7306	30658.00671	32950.42402	33690.03906	39368.55457	47205.76476	36108.34213	39152.02821	44962.35292	32519.39572	31381.32701	31854.93013	34259.41793	27293.4707	34513.41035
300	360	30473.93048	34880.9397	42510.97686	37080.05996	45521.14367	31730.8257	53678.65027	39160.54789	37663.58568	40201.93421	29815.15097	36823.54492	40507.02124	46769.07462	37803.83429	41439.79253	46779.13209	30759.41728	34867.15781	29336.8291	33464.77287	38305.74777	33563.45727	31731.79755	32990.60997	44948.099	37083.88981	46842.65711	32556.03365	51357.19956	33715.69082	39728.8961	40829.98147	27974.39753	30681.28301	34189.69531	38881.39331	44990.82672	34348.55123	39466.50995	42880.46165	30874.29566	28272.62723	30319.7392	33483.42426	30771.04785	34414.72975
360	480	28864.83026	30528.70867	39211.32517	36004.0843	40501.83102	29212.89714	45780.0675	35281.98905	37639.52974	39482.21049	29045.42715	29349.62516	38262.35607	41855.98626	34646.04007	38919.07541	42925.45678	30607.9361	29224.20469	29011.25442	31590.93698	32530.3683	31029.76431	29492.8935	28998.6101	40520.01818	36945.21627	41143.74042	28735.67143	44280.39625	34587.27646	37764.00776	39048.04394	25127.0255	26847.9209	29879.58398	38737.44501	42779.70174	30687.78244	33644.374	40159.76052	29158.25457	27672.28934	28989.21153	31192.03837	29243.27734	30869.30822
480	600	28817.86338	28264.45928	36137.66915	32539.69244	37389.52109	27536.32036	40941.48807	33030.56921	32888.87156	34651.10874	25699.62544	27141.67415	35600.11044	38996.10945	31597.13632	35869.09102	39870.42455	28640.96779	27122.6875	26967.07902	29385.0047	27526.17829	29541.92227	29671.63241	28085.6701	36763.52546	34173.10037	35996.72389	26258.08085	37770.94231	30968.76738	34097.79954	35812.05739	23782.43633	25808.40566	26498.57031	35282.65636	38556.4162	29703.84532	32016.43971	35918.09902	28121.07891	26829.78823	26812.93063	29220.77717	25037.16602	28811.37054
600	900	24355.2232	25847.35691	30198.89441	30144.60345	29140.90074	22306.10851	32769.25422	30464.35428	30619.28875	30046.36521	24187.94345	24550.19987	31096.55664	33201.31754	27649.45943	29906.54914	32201.05786	24682.11957	25897.3293	25424.98325	27207.28786	27387.58901	26959.36497	25960.64523	26294.38821	31321.70656	28250.09423	30317.10933	21588.95724	32882.85167	27364.51592	29358.85809	30205.71309	21648.35249	24000.01113	25450.55273	30010.22243	31969.26387	24862.64082	28348.07259	30482.03845	25444.7592	25233.66769	24770.01672	26226.83453	24857.30859	26026.03897
900	1200	20643.9826	21055.29458	24092.6147	26754.23777	23308.20961	19050.27437	25505.24476	26832.00934	26363.81393	25386.51107	20319.40943	19282.37109	26847.13359	28516.15485	23431.59975	25630.97988	26732.13183	21449.36492	20883.72734	22722.99814	24142.49918	23264.31417	24276.65897	22151.05644	23208.56037	24822.81587	26419.60237	25085.5201	18740.91991	27840.52525	23304.44648	25147.15937	25082.47582	18757.45557	19974.07031	24372.58594	26700.12891	27087.69091	21099.34997	24888.79243	25711.0329	22899.49148	22687.65067	22914.88493	23829.18636	22926.58008	23418.45246
1200	1500	19134.63227	18932.57141	21569.01237	23612.94481	20557.90094	17684.10509	22532.2886	22087.76248	22757.29698	21671.99509	20235.87688	17285.20508	21875.26985	23841.50528	21564.05716	23014.63191	21962.84194	19868.2182	19384.70195	20751.1918	21839.21714	19707.01172	21823.64069	19958.95493	20096.98964	22917.45326	23914.41199	22547.02487	17413.88006	23633.18955	22149.58193	23683.82843	22610.35719	17036.49546	18058.88047	21146.56445	23668.85853	23928.56295	18601.29422	23069.26038	22138.10885	20173.35968	19337.51562	21360.44532	22749.93777	19679.3457	21831.14251
1500	1800	17175.78292	17234.80187	18645.13175	21342.95462	17727.41191	16450.49563	19629.19829	20743.23098	19872.54125	19384.3996	18051.39554	17049.41984	22220.20792	21536.10861	20011.87467	21489.76726	20313.25229	17857.80105	17740.43008	20103.58287	20251.52422	21463.04185	20377.79038	18068.07322	18530.10885	18916.61773	22146.48567	18619.82913	15071.54387	20338.81616	18662.31108	19870.66262	19957.27141	15443.05851	16652.24551	18505.60352	21468.19727	21223.65139	16817.61514	19543.86407	18951.3338	19550.99384	18381.20508	19763.6187	19998.41648	19789.64941	20270.65819
1800	2100	15100.88897	15081.40227	16688.6205	18675.75188	15774.43664	15442.03938	16218.18502	18991.59952	17621.9149	16336.82634	16234.37041	13903.33293	18461.25852	19055.21426	16813.86842	19166.53186	17531.23325	16075.84693	15851.1127	17757.99193	18125.43844	18389.71261	18251.02177	16788.41802	16359.98926	17689.68932	18796.07003	16491.45103	13352.9976	17650.08294	17279.35308	19609.64105	17967.03615	15349.32806	14066.77432	18712.79688	17860.84926	18624.2848	15813.64133	17790.70357	16346.77718	17089.38856	16196.7514	18108.55757	18685.71918	18654.78613	18295.6334
2100	2400	12232.27217	13739.47922	13322.03619	17421.9896	13097.71852	14598.64133	14980.41006	16871.74376	16081.79855	14553.15054	16232.06095	12561.88688	16801.36784	16753.3708	16412.17717	16694.21409	15472.29455	13927.29166	14814.62109	16172.07329	16700.87632	15371.60826	17466.14889	15365.23672	13685.02606	15039.21804	17666.26444	15139.34754	12771.01294	15582.707	14966.83647	16731.05996	15170.18564	13055.29487	12396.04131	14597.01855	15008.7645	16282.88539	14015.28188	16265.9757	14381.79615	15690.1962	14092.12123	17169.0968	17400.89691	17732.82324	16772.80522
2400	2700	12536.20213	13257.13455	12624.04531	15671.08792	12077.98709	13009.0307	14497.92283	14158.45559	14966.51672	13562.86945	13954.62735	12317.58285	14516.75415	15461.04209	14550.97083	16126.79238	14244.42034	13671.94936	13152.36133	15408.05147	15437.06605	14004.68541	15946.36346	13529.59702	14384.81666	14160.03836	15322.76239	12901.94729	11486.93182	14648.98663	14545.04395	15330.17905	13773.62312	12759.37045	12297.08115	16115.93945	15379.09685	15464.46609	14665.01466	15407.59935	13864.44521	13660.90941	13227.26465	15171.28467	15651.44965	15799.17871	15823.99691
2700	3000	12356.35077	11773.37443	13131.30164	15439.99315	12597.51611	12086.29808	12614.70254	13940.34795	12972.03566	12154.00816	13352.31467	11159.16243	13961.45318	13818.88666	13903.29415	13603.67605	12472.3195	13251.17127	12079.97969	14476.12196	14661.55544	14208.84277	14617.90113	13322.48961	12535.38835	13351.77371	14555.40139	11960.21437	10502.40595	12189.82184	12222.6397	13760.96518	12504.32167	10845.42	11867.82988	13378.39648	13743.5962	12850.14112	11646.37969	13500.27842	11612.98242	12874.00107	13217.1243	14078.47144	14335.74362	14827.79395	14488.92232
3000	3300	10809.64183	11447.90552	11017.96576	12969.21511	11614.50906	11282.4155	11895.99229	13777.16593	11960.65999	10815.90845	12454.33734	10308.82113	11608.25856	11530.0369	12408.5134	13378.10608	10816.09003	12040.0951	11745.72617	13104.92156	13399.26958	11247.57268	13733.28752	10830.40352	10538.25691	10770.74111	13129.25696	10494.41418	9854.02772	10740.42981	12126.87368	11589.42058	10593.37123	11784.4736	9383.51328	11155.87891	12523.30903	11461.20259	11181.24556	12533.29775	10474.84795	11061.70686	10440.95187	12809.98372	12591.17276	13912.03369	13256.05465
3300	3600	10068.50178	9920.20658	10861.83292	12025.75461	10256.19463	11834.2647	9764.02471	10411.70414	11208.28961	10768.13516	12038.70455	8199.24349	11025.31108	11513.18634	12201.27168	12456.8519	10407.02696	10243.22528	10180.8002	12266.26495	12379.06237	11936.57213	12759.03062	10400.37414	11129.75398	10979.96727	12977.60538	9932.0647	9950.88327	10261.2779	9803.59001	12114.68837	10873.50107	9103.91193	11543.98223	12067.18555	11003.8279	11007.44039	10673.60782	12608.241	10247.2717	10361.44332	12708.78083	12903.63522	13070.22958	12022.30615	12306.36546
3600	3900	9024.30632	8868.20369	9568.51478	10334.5309	9477.02291	8072.16045	9244.73491	8258.17425	10245.71607	9242.06289	8440.35709	7621.65767	9629.0657	9122.89201	9315.0181	10908.80917	8788.2286	9307.42346	8781.21133	11684.62652	11620.3357	11567.64216	11849.8295	9211.42007	8633.8137	9415.21633	11414.22324	8398.61246	10143.09589	8230.46428	10203.20269	9725.0537	8975.62101	9281.19522	9720.49121	8610.48047	9997.19993	8663.31367	10391.52171	10277.03505	9295.71316	9151.12281	9592.14572	11574.47706	11405.62551	11472.45312	11004.13471
3900	4200	8266.24628	7525.30828	8827.0868	9548.14223	9495.52349	9772.39832	8867.27635	9053.58916	9660.52905	8961.48822	9748.25203	6837.1025	9410.88345	10078.42491	11001.5517	10810.50469	8954.19256	8889.98341	7966.64902	9949.19112	10462.74022	9606.70494	11406.74383	7986.48329	8364.22884	8069.53617	9923.21218	8686.87309	8717.51169	9017.69852	7940.14573	8682.35359	8647.41582	10718.87578	7940.49468	8868.78809	8854.46587	9259.67774	9410.4089	9966.91227	9156.17068	9006.74502	8842.88002	10539.65515	10029.1024	10363.41357	10068.38431
4200	4500	8685.84677	9465.00877	6653.74336	8747.80988	5706.16104	10009.33042	7382.9528	8839.29983	8155.31513	7986.44635	10754.25603	9055.44067	8210.64357	8155.09782	10217.03367	9408.6167	7728.75686	9326.96202	9536.12285	10041.28311	9566.45754	8592.89802	9866.77417	9168.47676	9334.40848	8888.26024	10815.28303	8072.71809	8857.8192	8713.05781	9176.67458	9507.12922	9129.00224	11069.39881	8317.27808	8670.6748	8710.16243	9725.87994	9750.65329	10773.28209	7845.66914	8901.64544	8805.02288	9914.27934	9255.03563	12829.69238	11064.59251
4500	4800	6566.11127	6731.8965	6599.72158	8692.39716	6933.92565	8184.15514	8016.60157	7801.59759	8339.2997	7226.04789	9064.14573	6193.8844	8390.2543	7464.61182	8967.20097	8707.05644	7759.08961	6978.63241	7866.75967	9501.76495	9915.83619	11397.14579	9820.49724	6740.86321	8060.2248	7232.62295	8532.23566	6598.87717	8207.68036	7216.64787	7011.49863	8034.89916	7582.70817	8403.751	7972.471	7996.07959	7951.10074	7626.00217	8346.83041	8550.28489	7275.15088	7051.88679	9407.83245	8373.39508	8342.73667	9789.9541	8789.60377
4800	5100	7447.01307	8950.70793	5859.79861	8814.71567	5097.05961	8705.31584	6359.48651	6987.68075	6934.85663	6868.42915	7664.53833	10096.41227	8625.05419	7116.72125	7949.83235	8091.23791	6769.44285	8934.66477	9807.29062	9009.58538	8520.64907	7470.68108	9046.24676	7655.55002	7565.20977	8020.79416	9733.48404	8369.04817	7242.78685	7700.68209	8375.00366	7749.51527	7902.35334	8739.95218	7542.3876	8197.50195	7877.4992	8654.90298	8560.64396	9708.42594	8171.91611	7955.85712	7873.56759	8868.06173	8704.09098	8749.1123	8929.94975
5100	5400	8184.09084	7562.89371	7815.85757	7098.31651	6988.49422	7399.30159	7103.97777	5541.92667	7235.19995	6827.40796	8250.72917	7582.88745	7507.41835	6789.30153	7126.09427	6913.65064	6389.8332	7427.67089	7454.94434	7755.47387	7815.42133	9119.60463	8111.75808	7811.6549	5742.73198	7596.10542	8425.93365	6941.35461	6054.04061	6446.04758	8251.4897	6479.39227	6680.47003	7429.74317	5704.34683	5464.72314	8994.97564	7574.42194	6488.41915	8463.03664	7428.11245	6740.20504	5352.32094	8367.30342	7604.69117	8248.58472	7901.09814
5400	5700	6524.93809	6264.19066	5532.52453	8048.28682	5622.10673	6306.94034	6421.92901	5742.10698	7130.21274	6490.87552	8098.69175	6250.70768	8030.78357	7106.92773	5584.7288	7432.14626	5930.09856	6790.07633	6638.77656	7629.88033	8428.47722	8687.84005	7675.46129	6087.03754	5719.26864	5686.89418	6824.9016	5338.54693	5102.36406	7154.58857	7484.46067	7140.56091	6499.40444	6900.48819	5544.29331	6221.26318	5401.12107	7005.02219	6704.87382	9347.86046	7466.35248	5741.07038	5547.73758	7849.152	8465.6848	9074.03613	8153.42745
5700	6000	5899.0084	6479.04699	5451.14351	6545.88769	5186.05667	7119.9002	5353.99805	5170.06286	6326.72358	6497.1725	7376.80981	7019.67822	7121.31623	7374.3515	6492.22683	8287.50163	6078.85915	6023.56508	6782.45293	7259.20395	6611.70913	8643.19169	8370.2387	4355.39584	6262.97906	5019.06955	7345.09254	6010.66484	6557.39654	6982.18103	5144.44448	6309.21865	6199.59575	7386.33405	7422.0936	5569.92285	8440.93314	6786.00935	6835.73358	6680.9898	5972.21494	5949.13013	7797.75321	7142.46785	6930.23497	9255.80029	7745.15686
6000	6300	4968.65447	4793.06226	4999.87068	9704.82257	4033.86325	7779.62819	5695.6703	5435.10239	5881.8976	5456.80871	7334.35171	4333.80463	7577.91849	6006.12978	6000.22423	7198.81684	5837.58301	5920.38514	5112.1125	6948.82986	7427.63805	7193.82736	8226.64825	7430.93737	4525.83271	5724.36353	5722.78854	5627.11958	5897.27496	4982.76324	4937.07639	5964.69291	5311.98289	4352.98605	5215.78032	3326.39795	5677.25566	3507.23802	4853.4301	6549.38672	4971.02883	7125.9835	3933.49609	6589.56995	7288.7007	6798.16968	5577.03642
6300	6600	6721.37195	4368.06405	5631.95429	7207.41382	3545.9112	4599.53531	5493.37824	6173.38511	7318.87713	5928.12746	5799.59557	4189.83437	7076.44459	6065.55479	6268.98463	6713.48884	5481.49712	6112.82679	3044.44268	7383.42794	6794.54096	6749.53034	7632.98691	6103.28366	5689.56555	4378.53069	4522.76335	2887.09809	4116.15923	4907.65336	4787.33298	4200.28657	4357.0094	6158.61464	7015.82192	5310.37109	4345.38943	5951.55546	5512.50964	6469.22331	4903.97442	7512.98807	6310.35798	6589.03759	6225.79823	8795.81152	7805.69523
6600	6900	8846.87219	6230.79739	6528.76438	5383.89401	7818.17999	7629.62219	6140.01456	5797.02153	3805.36568	4367.55531	8878.71705	3101.69853	6351.79819	5133.54137	5873.61051	6251.78763	5297.74267	6760.24358	4338.53613	5683.86512	5380.84255	7881.8365	6734.49778	4594.44303	3711.48765	3952.87263	6933.61035	3930.52581	5381.52016	4297.45741	7086.78833	6007.71757	5501.06029	4631.28148	3510.13608	4121.9292	8536.10848	5826.80654	5639.43281	7999.07169	5278.41717	5362.62906	2825.8531	5385.55048	7826.1498	6832.39868	7613.76975
6900	7200	4590.09496	8837.26517	3656.72433	5197.49601	2932.86892	4229.68339	4728.07819	5895.6635	5846.81754	5892.04305	4634.10025	10610.4891	5085.11946	7460.22759	6300.36972	7105.51738	6354.94674	6145.49981	9304.59609	5858.68371	7040.23317	5872.24651	7642.91366	4742.10019	4879.15141	4427.48642	4761.12499	3814.62775	5187.95978	6250.00502	4986.64816	6747.27884	6221.99381	5789.16276	4327.6491	4406.42676	4924.1986	5224.42821	6406.43331	6023.67296	5965.05702	5848.9657	4345.20156	7713.93858	6571.5434	4781.61743	5867.40332
