frame_start	frame_end	Left-Cerebral-White-Matter	Left-Cerebellum-White-Matter	Left-Cerebellum-Cortex	Left-Thalamus	Left-Caudate	Left-Putamen	Left-Pallidum	Brain-Stem	Left-Hippocampus	Left-Amygdala	CSF	Left-Accumbens-area	Left-VentralDC	Left-choroid-plexus	Right-Cerebral-White-Matter	Right-Cerebellum-White-Matter	Right-Cerebellum-Cortex	Right-Thalamus	Right-Caudate	Right-Putamen	Right-Pallidum	Right-Hippocampus	Right-Amygdala	Right-Accumbens-area	Right-VentralDC	Right-choroid-plexus	AirCavity	Skull	Vermis	Pons	CSF-ExtraCerebral	Head-ExtraCerebral	ctx-lh-bankssts	ctx-lh-caudalanteriorcingulate	ctx-lh-caudalmiddlefrontal	ctx-lh-cuneus	ctx-lh-entorhinal	ctx-lh-fusiform	ctx-lh-inferiorparietal	ctx-lh-inferiortemporal	ctx-lh-isthmuscingulate	ctx-lh-lateraloccipital	ctx-lh-lateralorbitofrontal	ctx-lh-lingual	ctx-lh-medialorbitofrontal	ctx-lh-middletemporal	ctx-lh-parahippocampal	ctx-lh-paracentral	ctx-lh-parsopercularis	ctx-lh-parsorbitalis	ctx-lh-parstriangularis	ctx-lh-pericalcarine	ctx-lh-postcentral	ctx-lh-posteriorcingulate	ctx-lh-precentral	ctx-lh-precuneus	ctx-lh-rostralanteriorcingulate	ctx-lh-rostralmiddlefrontal	ctx-lh-superiorfrontal	ctx-lh-superiorparietal	ctx-lh-superiortemporal	ctx-lh-supramarginal	ctx-lh-frontalpole	ctx-lh-temporalpole	ctx-lh-transversetemporal	ctx-lh-insula	ctx-rh-bankssts	ctx-rh-caudalanteriorcingulate	ctx-rh-caudalmiddlefrontal	ctx-rh-cuneus	ctx-rh-entorhinal	ctx-rh-fusiform	ctx-rh-inferiorparietal	ctx-rh-inferiortemporal	ctx-rh-isthmuscingulate	ctx-rh-lateraloccipital	ctx-rh-lateralorbitofrontal	ctx-rh-lingual	ctx-rh-medialorbitofrontal	ctx-rh-middletemporal	ctx-rh-parahippocampal	ctx-rh-paracentral	ctx-rh-parsopercularis	ctx-rh-parsorbitalis	ctx-rh-parstriangularis	ctx-rh-pericalcarine	ctx-rh-postcentral	ctx-rh-posteriorcingulate	ctx-rh-precentral	ctx-rh-precuneus	ctx-rh-rostralanteriorcingulate	ctx-rh-rostralmiddlefrontal	ctx-rh-superiorfrontal	ctx-rh-superiorparietal	ctx-rh-superiortemporal	ctx-rh-supramarginal	ctx-rh-frontalpole	ctx-rh-temporalpole	ctx-rh-transversetemporal	ctx-rh-insula
0	30	755.8084106445312	657.4357299804688	904.0279541015625	1061.7193603515625	903.6016235351562	1187.0899658203125	619.9884643554688	764.4403686523438	1247.1356201171875	1255.3211669921875	574.8777465820312	794.1608276367188	1069.01220703125	904.218994140625	755.1560668945312	625.6222534179688	954.4425659179688	1192.81396484375	945.6884765625	1102.6556396484375	691.5090942382812	994.1653442382812	695.8859252929688	1447.2841796875	744.6226196289062	941.9283447265625	189.64630126953125	379.224365234375	819.3863525390625	736.2591552734375	1044.3831787109375	295.7630310058594	1120.037353515625	1477.4619140625	1120.0992431640625	1300.77880859375	956.7965087890625	905.9080200195312	1000.0839233398438	777.7086181640625	1008.27294921875	1034.6234130859375	1103.2320556640625	1288.71728515625	1558.6292724609375	906.78271484375	1125.741455078125	1164.68359375	1195.5496826171875	1256.44677734375	1309.74169921875	1338.193359375	1022.9242553710938	1131.9466552734375	1089.127685546875	1254.7447509765625	1307.6083984375	1143.1055908203125	1124.8760986328125	884.8383178710938	1211.93017578125	1131.9140625	1199.1678466796875	673.422607421875	1712.0472412109375	1473.8287353515625	1168.5931396484375	1272.845703125	1115.7955322265625	1397.619873046875	1188.789306640625	990.5383911132812	1007.909912109375	800.2390747070312	1092.8167724609375	935.9291381835938	1285.1708984375	1319.149658203125	1347.8760986328125	963.0518188476562	1086.2088623046875	1091.907470703125	1316.903564453125	1102.6064453125	1248.1302490234375	1392.74267578125	1028.6029052734375	1216.548095703125	1075.575927734375	1201.4957275390625	1482.7437744140625	1121.1875	1061.93701171875	1014.333740234375	1049.031982421875	1135.89306640625	1274.704833984375	621.8099975585938	1602.5765380859375	1317.56884765625
30	60	7718.96728515625	7985.58447265625	11148.2314453125	10986.1748046875	10635.6875	12414.33203125	8438.1572265625	7415.81005859375	9603.4521484375	8572.568359375	5989.19482421875	11194.3701171875	9005.1455078125	9806.88671875	7690.94384765625	7927.44970703125	10812.841796875	11412.443359375	9595.1376953125	11994.74609375	8210.251953125	8593.6396484375	7708.54931640625	9952.03515625	9076.9658203125	9402.2578125	1842.3953857421875	3555.03662109375	11399.8359375	8663.21484375	9793.318359375	2757.468505859375	11417.7783203125	11958.60546875	11343.5888671875	13970.5537109375	7976.7080078125	10687.4697265625	10792.1044921875	9988.8203125	10360.59765625	11091.001953125	11650.2763671875	12809.599609375	11843.2998046875	9810.150390625	9156.1005859375	10646.669921875	12920.798828125	12040.54296875	12648.376953125	13941.8115234375	10554.3837890625	12054.681640625	10978.8916015625	12406.76171875	10905.87890625	11736.4462890625	11666.6767578125	10169.5302734375	10511.2880859375	11743.685546875	12645.5322265625	7099.4814453125	13662.8740234375	11387.791015625	10808.3525390625	10854.1328125	12445.0673828125	14275.8544921875	8951.3828125	9335.70703125	10975.4541015625	9324.265625	11087.388671875	11276.0205078125	11532.107421875	12234.388671875	11209.142578125	9786.619140625	9274.859375	11284.7998046875	12407.57421875	11037.919921875	12329.3056640625	14089.0283203125	10433.7451171875	12574.923828125	10999.98828125	12463.6767578125	11539.5224609375	11713.6904296875	10900.2568359375	10182.1201171875	10205.943359375	11836.9052734375	11285.4462890625	7016.85009765625	13756.5380859375	10985.14453125
60	90	16946.2109375	17432.533203125	24087.224609375	23472.466796875	24254.6953125	26557.62890625	17213.87890625	15783.4345703125	19385.677734375	17437.875	12816.986328125	22637.166015625	17559.49609375	18318.701171875	16939.1796875	17583.748046875	24021.306640625	24384.2578125	22534.546875	25597.443359375	18584.087890625	18121.619140625	17871.224609375	19787.5390625	19467.04296875	19595.138671875	4001.329345703125	7591.82568359375	24910.447265625	18790.123046875	20012.06640625	5973.6826171875	24160.068359375	23912.4921875	24865.083984375	29294.140625	17594.40234375	22695.330078125	23698.015625	22256.57421875	25195.20703125	24276.619140625	24593.71484375	28121.73828125	24790.0703125	21384.54296875	19547.70703125	23584.10546875	26467.181640625	25281.14453125	27613.36328125	30676.2578125	23207.65234375	26010.951171875	24138.9140625	26603.171875	22172.826171875	26413.21484375	25085.234375	22153.09765625	21763.51953125	24935.763671875	25817.73046875	16113.853515625	29226.583984375	23301.80078125	23134.466796875	23449.322265625	26140.16015625	30923.640625	20152.474609375	20464.6015625	24296.95703125	20936.041015625	25312.73046875	24530.28515625	24074.80859375	26969.830078125	23326.49609375	21790.138671875	18522.046875	22634.158203125	26236.12109375	23755.93359375	26008.0546875	31728.8671875	22871.72265625	26062.373046875	23531.794921875	26849.001953125	21947.2578125	25521.921875	24146.880859375	22798.125	21302.154296875	25405.0390625	22405.529296875	15027.912109375	27240.98828125	22841.845703125
90	120	26457.751953125	28294.685546875	37725.58203125	36680.63671875	37756.6875	43009.125	27958.291015625	24758.533203125	29980.15234375	28132.013671875	19402.84765625	35269.671875	28153.501953125	28987.9765625	26350.08984375	27427.876953125	37099.2265625	39063.453125	35473.8359375	41300.98828125	29181.95703125	28683.23828125	26006.755859375	36342.0859375	28604.408203125	30439.529296875	6147.12548828125	11663.283203125	39714.00390625	29590.384765625	29811.6484375	9307.9951171875	38175.44140625	35740.66015625	38729.0078125	44074.56640625	28108.736328125	34472.37109375	36537.0234375	35301.23046875	36447.59765625	37393.8828125	38425.0546875	42817.07421875	37724.13671875	33242.5546875	30914.849609375	37107.6796875	39967.84375	40702.08984375	41714.00390625	47901.60546875	35267.87890625	39878.21484375	37125.234375	39773.2421875	33278.8046875	41095.05078125	38853.4140625	34334.66015625	33241.4375	38451.359375	40749.32421875	25465.205078125	45972.2109375	35801.59375	36203.02734375	31686.9453125	39316.82421875	45011.73046875	29314.234375	32247.8515625	35725.265625	32044.05859375	36668.14453125	37907.30859375	36926.78125	40033.34375	35610.09765625	33065.453125	29065.958984375	34725.7578125	40997.18359375	37563.73046875	40356.76953125	47882.22265625	35420.9609375	39128.51953125	36585.1328125	40228.2890625	32531.84765625	40012.90625	37317.73046875	35582.625	32324.17578125	37823.2890625	39393.828125	23039.640625	43608.25	33996.28125
120	150	32828.8515625	34775.60546875	47227.3046875	44940.56640625	45981.21484375	53960.89453125	37314.140625	29840.515625	37003.80859375	33579.93359375	23467.052734375	45984.13671875	34488.2734375	32791.796875	32669.626953125	33699.07421875	45892.8203125	48703.7421875	43432.53515625	51725.06640625	35354.58203125	35008.7265625	31047.845703125	41479.98828125	34215.2109375	35440.66015625	7300.8544921875	14064.421875	46533.375	37333.6484375	35217.99609375	11465.7529296875	46747.2265625	43970.390625	48282.5390625	54657.98046875	34599.78515625	42585.5234375	44962.51171875	44374.74609375	42336.34375	46365.46484375	47899.03515625	50149.0	45485.015625	41422.4921875	35872.546875	43820.26171875	49250.48046875	51442.87890625	51258.1484375	55150.78125	44309.546875	47792.77734375	45811.91015625	49710.01953125	41322.3359375	50770.54296875	47636.65625	42385.68359375	41482.46484375	47593.6875	47593.4453125	32706.39453125	54518.546875	43267.49609375	45718.765625	38676.01953125	49077.77734375	53933.421875	37593.8671875	40598.31640625	44637.19140625	39146.2265625	45460.046875	45657.8359375	45887.5	49283.90234375	44492.96484375	40507.81640625	36036.875	44296.16796875	48823.4921875	45579.58984375	49147.3515625	58684.484375	43053.57421875	47104.53515625	44513.28125	49068.6328125	40686.16015625	48584.5703125	46173.09375	42960.37890625	40108.671875	45895.9609375	47534.10546875	29738.78515625	50287.3828125	40831.49609375
150	180	33056.93359375	35362.671875	46689.7421875	46462.984375	45621.9921875	54077.34375	34581.16796875	29561.859375	35188.62109375	32302.13671875	22405.0859375	45560.265625	35123.9609375	30256.533203125	32862.25	34487.10546875	45780.66796875	46645.4296875	43065.94140625	51133.19140625	37535.515625	33984.37890625	32951.76171875	42518.5703125	33742.3671875	31513.294921875	7216.9091796875	13845.4462890625	46989.421875	36472.26953125	34184.71484375	11391.8056640625	46057.78515625	40946.7109375	47832.74609375	53106.94921875	31520.765625	43213.56640625	45730.76953125	44343.44140625	43615.3984375	46274.33203125	47561.03125	49690.68359375	44717.41796875	41224.16796875	37247.69140625	45179.80859375	49027.93359375	50366.6953125	49317.79296875	57081.00390625	44528.5	48371.765625	45895.92578125	50099.3359375	40992.484375	49840.609375	47164.12109375	42664.1015625	40861.5390625	46681.8828125	49335.18359375	30355.482421875	53831.765625	42517.96484375	46913.859375	39983.42578125	48683.08203125	52009.57421875	33919.05859375	40169.32421875	45192.40234375	39974.50390625	44852.5625	46342.1875	44069.328125	48698.67578125	43903.43359375	40937.05078125	37438.55859375	41698.046875	47861.19921875	45581.37890625	46987.52734375	57198.41015625	43787.92578125	47627.8046875	44950.54296875	49066.2421875	38978.609375	48901.5625	45652.0625	43669.94921875	40584.41015625	45413.37890625	47688.4453125	30729.453125	50824.4765625	41299.61328125
180	240	32133.826171875	33750.9296875	44593.87109375	44884.203125	43985.75390625	52673.23046875	35894.78515625	28527.96484375	33617.20703125	32759.458984375	21198.943359375	43838.61328125	33738.828125	28001.47265625	31967.650390625	32986.34375	43881.0625	46741.4140625	42540.86328125	49949.66015625	37544.1328125	33518.56640625	32054.509765625	40431.97265625	33512.80859375	29103.873046875	6742.03515625	13278.2099609375	44646.37890625	36126.1640625	32337.154296875	11336.4580078125	44640.08984375	40304.2265625	45656.86328125	50571.58203125	31421.220703125	41298.0859375	42925.70703125	42607.2578125	40547.0390625	43593.3984375	45729.66796875	47014.09765625	43969.28125	40204.3671875	35594.48828125	42887.39453125	45815.62109375	48159.21484375	47611.6015625	53161.2578125	42464.4765625	45370.13671875	44656.89453125	47340.0703125	38590.65234375	48342.84375	45391.26953125	41065.3671875	39770.109375	44166.49609375	45762.58984375	30227.06640625	49723.9765625	41495.01171875	43684.828125	36443.734375	45959.20703125	49460.7421875	32169.693359375	39443.171875	42975.16796875	38100.16796875	42737.17578125	43633.79296875	43770.421875	45821.765625	42589.6015625	39150.1796875	35045.03125	42210.46875	45384.015625	43585.94140625	45476.9609375	53510.71484375	41156.08203125	44720.8671875	42662.48828125	46652.40625	38193.26953125	46832.7265625	43895.08984375	41324.7109375	38578.72265625	43758.8046875	44986.5390625	29574.712890625	46103.33203125	39440.63671875
240	300	30575.822265625	31882.0625	41739.2421875	42538.58984375	41968.68359375	49735.765625	35019.56640625	26798.375	32764.697265625	31490.927734375	19644.439453125	43016.2421875	31440.802734375	25939.822265625	30619.48828125	31415.94140625	40763.2265625	45040.9140625	39535.00390625	46800.1171875	35757.01171875	32469.01171875	31937.8515625	38932.51171875	32978.2421875	26296.3671875	6277.76904296875	12683.171875	40234.30859375	33622.82421875	29774.982421875	11063.748046875	41848.96875	38285.59765625	41939.03515625	46515.5078125	31116.162109375	39019.3359375	40412.890625	40065.11328125	37901.71484375	40648.41015625	42272.6484375	43879.3984375	40785.12890625	37250.48046875	34267.48828125	39691.59765625	42105.12890625	43846.84765625	43792.296875	48374.37890625	39748.55859375	42177.2109375	40882.36328125	43442.9296875	37107.83203125	44799.3203125	42374.484375	38212.03515625	37107.57421875	41253.1640625	42295.265625	29356.974609375	45475.9921875	39329.88671875	41638.93359375	35857.08984375	43256.01953125	44537.328125	30714.154296875	37429.0859375	39799.83203125	35984.13671875	39749.22265625	40681.55859375	39756.55078125	42857.01171875	40265.3828125	37765.640625	34461.03515625	38662.2890625	43022.07421875	40843.25390625	42727.34765625	49323.671875	38464.42578125	42801.09375	40245.39453125	43149.7265625	37719.76953125	43560.71484375	40459.1953125	38341.8984375	37136.06640625	40424.34375	42907.04296875	28355.849609375	43022.74609375	37274.28125
300	360	28982.369140625	30665.1171875	38291.046875	39890.390625	38474.35546875	46009.19140625	32564.14453125	26144.5390625	30533.640625	30429.787109375	18637.26171875	39821.24609375	31510.123046875	23450.18359375	28732.4296875	29797.61328125	37993.71875	41387.3046875	36147.26171875	43530.36328125	34218.625	29731.298828125	31092.822265625	37621.60546875	30412.86328125	24051.58984375	5967.1328125	12352.177734375	37731.875	31783.416015625	27497.669921875	10944.5703125	39257.0078125	35902.80078125	38301.1171875	42672.49609375	29383.935546875	36598.59765625	37207.88671875	37884.96484375	34997.90234375	37593.0234375	38113.98046875	40632.75	38620.23828125	34697.02734375	32149.583984375	36720.8046875	39083.796875	38574.53515625	39194.3359375	43644.515625	36152.5625	38560.25390625	37730.7109375	39151.91796875	34621.1484375	40709.23828125	38080.41015625	34993.25	34846.328125	37823.0078125	39689.93359375	28732.126953125	40472.76953125	36347.671875	39105.578125	33329.671875	38636.1875	40622.79296875	30286.583984375	34634.96875	36792.703125	33520.734375	35995.6796875	37457.33203125	36029.375	39588.19921875	37103.921875	34626.92578125	32903.86328125	35508.80859375	38152.453125	35752.1796875	38186.671875	43900.2890625	35485.9296875	38703.375	36670.09375	38879.5234375	33991.90234375	39131.94140625	36764.98046875	35222.10546875	34512.890625	36870.36328125	39229.73828125	27420.619140625	39815.25390625	34321.63671875
360	480	26923.201171875	28464.158203125	34272.9375	37719.58984375	33281.44140625	41035.7578125	32199.322265625	24664.181640625	28433.3984375	29447.986328125	16832.890625	37958.46875	29016.30078125	19629.52734375	26748.837890625	28270.5703125	33847.72265625	38741.7890625	32589.32421875	39464.64453125	32557.28515625	28435.75390625	28992.380859375	32431.669921875	29313.3828125	22478.197265625	5558.4970703125	11810.3984375	32843.6171875	29864.8203125	24327.5078125	10730.669921875	35086.6796875	31760.12109375	34063.4609375	37331.04296875	27591.61328125	34072.50390625	32758.427734375	33733.98828125	31507.359375	33102.4765625	34215.65625	36494.5078125	34018.9375	32316.0546875	29642.1171875	33335.1328125	34494.890625	35695.734375	34931.21875	37504.63671875	32171.45703125	34780.0703125	33587.73046875	34918.89453125	31878.724609375	36444.14453125	34194.33984375	31139.513671875	31883.630859375	33950.609375	35824.78125	27464.587890625	36176.375	33909.48046875	35542.3359375	29496.658203125	34280.328125	35771.69921875	27706.515625	31723.923828125	32793.796875	30602.396484375	31888.359375	33347.1796875	32506.888671875	35106.171875	33135.6015625	31394.87109375	29353.861328125	31857.6640625	34715.0703125	31638.2421875	33879.9296875	37747.6015625	31309.744140625	34176.703125	32673.69921875	34683.16015625	31482.78125	35148.3125	32993.484375	31645.154296875	31503.314453125	32886.03515625	33799.93359375	26037.01171875	34325.24609375	31954.78515625
480	600	24962.791015625	26564.6171875	30082.435546875	34563.3828125	29358.634765625	37482.296875	29955.28125	22997.36328125	25749.431640625	27463.5078125	15416.712890625	33662.5703125	28029.619140625	17339.896484375	24762.84765625	26415.212890625	29969.1640625	35625.11328125	28918.02734375	34957.1328125	30293.328125	25797.56640625	27454.525390625	30773.291015625	28513.841796875	19442.33203125	5357.8486328125	11364.6591796875	28967.63671875	27211.783203125	21215.046875	10634.0244140625	30960.0859375	28695.6015625	29953.15625	32296.2578125	24577.708984375	30000.421875	28260.76953125	30489.48828125	28324.9375	28883.669921875	30805.970703125	31122.859375	30090.84375	28757.255859375	26632.109375	29062.28515625	30601.330078125	31940.296875	30767.03515625	32220.859375	28591.068359375	31281.23828125	29775.162109375	30700.12109375	28760.716796875	31961.85546875	30320.857421875	27081.20703125	28458.470703125	29775.103515625	31082.908203125	26071.421875	32117.53125	30682.126953125	30788.865234375	27037.28125	29684.369140625	31113.279296875	25832.978515625	28327.65234375	28936.841796875	27967.587890625	28685.79296875	29112.39453125	28620.091796875	30994.537109375	29427.330078125	28436.14453125	26979.072265625	28259.921875	30503.509765625	28841.716796875	29929.541015625	32530.408203125	27106.51953125	30913.9296875	28921.44140625	30167.181640625	27501.052734375	31075.072265625	29327.646484375	27610.18359375	28694.724609375	28683.869140625	30099.435546875	24475.39453125	30170.162109375	29297.4140625
600	900	23448.224609375	25051.09375	25853.67578125	31065.599609375	25096.294921875	32535.51953125	28845.65234375	21472.05078125	23654.6796875	25360.8203125	14146.9306640625	28854.982421875	26783.416015625	15936.8525390625	23147.033203125	24506.697265625	25650.232421875	32130.404296875	24340.947265625	31090.861328125	28964.7265625	23736.189453125	25279.001953125	27163.708984375	26924.927734375	17642.373046875	5190.9482421875	11233.6484375	24517.640625	25886.31640625	18760.11328125	10912.0107421875	27978.93359375	26043.02734375	26062.1015625	27830.1171875	24103.306640625	26908.369140625	25059.98828125	27338.943359375	24973.115234375	24939.853515625	27178.9375	27576.08984375	26556.31640625	25549.1953125	23849.791015625	25338.322265625	26724.390625	27325.654296875	27116.541015625	28412.61328125	24763.931640625	28043.359375	26225.90234375	26707.908203125	25382.787109375	28178.16015625	26512.513671875	23715.90234375	25476.935546875	26026.625	27092.892578125	24120.193359375	27881.830078125	27507.4453125	27451.412109375	24886.1796875	26229.921875	26375.498046875	23818.453125	25781.888671875	25232.68359375	25085.810546875	25994.830078125	25246.5390625	25959.77734375	27047.58984375	26526.236328125	25559.083984375	24379.935546875	25227.4609375	26832.845703125	25208.869140625	26123.001953125	28257.60546875	24221.77734375	27659.828125	25628.61328125	26117.541015625	25330.388671875	27229.32421875	25852.8125	24207.10546875	25376.982421875	25499.46875	26560.068359375	22935.8984375	26679.349609375	26081.640625
900	1200	22859.34375	23980.1328125	22779.25	28235.732421875	22172.751953125	29024.857421875	27285.703125	20260.56640625	21793.92578125	24166.6640625	13343.7783203125	26977.341796875	25369.791015625	14970.19921875	22452.666015625	23717.82421875	22630.626953125	28907.58984375	21590.001953125	28254.033203125	27459.97265625	22510.513671875	23781.98828125	24598.33984375	25377.3125	16866.064453125	5272.890625	11474.2392578125	21590.68359375	24694.28125	17146.650390625	11551.8232421875	25416.5703125	23504.775390625	23498.734375	25283.26953125	22152.810546875	24837.04296875	22629.203125	25426.921875	24026.369140625	23102.6171875	25901.759765625	25485.345703125	24874.3046875	23720.58203125	22117.412109375	23171.234375	24158.654296875	25555.984375	24713.251953125	26131.25390625	22666.671875	25201.89453125	24234.431640625	24189.7890625	24168.947265625	25953.669921875	24201.607421875	21545.552734375	23532.8984375	23687.642578125	24279.654296875	23115.427734375	25340.759765625	25632.904296875	25414.41796875	23424.087890625	23879.740234375	23791.021484375	21603.8046875	23807.833984375	22763.41796875	23180.06640625	23868.890625	23087.1015625	24095.78515625	24580.169921875	24422.345703125	23533.30078125	22401.458984375	23344.943359375	24663.7734375	23463.0234375	23865.158203125	25707.529296875	21946.123046875	25325.1328125	23352.138671875	23786.69140625	23356.306640625	24805.962890625	23435.974609375	22105.412109375	23533.109375	23312.5625	24464.5859375	21595.087890625	24559.248046875	24501.9453125
1200	1500	22138.45703125	22841.16796875	20301.361328125	25694.544921875	19898.63671875	26382.138671875	26235.28125	19051.77734375	20411.783203125	22055.845703125	12745.3330078125	24457.2265625	23881.60546875	14062.1181640625	21802.673828125	22562.83984375	20182.15234375	25985.16015625	19519.1953125	25224.732421875	26074.875	20668.736328125	21840.63671875	22411.423828125	24317.626953125	15492.294921875	5316.34228515625	11652.5263671875	18628.169921875	23622.00390625	15992.060546875	12118.09765625	24089.822265625	22146.548828125	22259.23046875	23713.666015625	20882.337890625	23410.23828125	20950.310546875	23551.34375	22308.578125	21344.916015625	23781.615234375	23772.923828125	22853.79296875	21992.04296875	20558.314453125	21452.0625	22539.552734375	23661.537109375	22886.630859375	24188.462890625	20917.20703125	23713.666015625	22313.88671875	22485.298828125	21859.701171875	24135.919921875	22421.451171875	20015.3671875	21904.765625	22144.125	23176.46484375	21561.125	24312.88671875	23984.345703125	23329.123046875	22299.470703125	21665.462890625	22080.876953125	20897.83203125	22351.39453125	21121.6640625	21605.37109375	22436.806640625	21644.283203125	22358.828125	22987.33203125	22554.265625	21994.26171875	21258.822265625	21844.62890625	22984.78125	21416.880859375	22154.017578125	24324.06640625	20506.712890625	23750.44921875	21940.0703125	22108.50390625	22040.427734375	22939.001953125	21696.576171875	20631.095703125	21737.990234375	21743.8515625	23475.5390625	20445.544921875	22844.02734375	22955.787109375
1500	1800	21305.017578125	21453.662109375	18108.189453125	23287.009765625	18427.998046875	24166.595703125	24691.548828125	17586.78515625	18245.39453125	20472.162109375	11981.1005859375	21800.701171875	22541.47265625	12794.052734375	20881.009765625	21330.830078125	18070.53515625	23065.943359375	17529.591796875	23053.4765625	23828.392578125	19956.9375	19863.99609375	20035.431640625	22680.25390625	14642.806640625	5271.4833984375	11617.96875	16647.400390625	22220.54296875	14950.416015625	12355.0078125	22250.462890625	20948.375	20240.193359375	21391.7734375	20177.48046875	22110.69921875	19234.580078125	22041.916015625	21234.21484375	19758.42578125	22095.822265625	22164.580078125	21096.27734375	19930.611328125	19501.51953125	20067.8125	21238.580078125	22083.462890625	21828.654296875	23010.994140625	19332.578125	22628.03125	20542.517578125	20740.435546875	21299.966796875	22005.32421875	20519.470703125	18452.63671875	20251.69140625	20352.37890625	21825.21875	20198.56640625	22124.22265625	22265.2421875	21363.865234375	19929.41796875	20341.853515625	20212.427734375	18758.619140625	20695.54296875	19692.962890625	20602.029296875	21094.794921875	20318.80078125	21170.046875	21261.720703125	20931.54296875	20722.673828125	19494.1796875	19510.87109375	20915.919921875	20619.626953125	21077.43359375	22471.111328125	19233.25	22218.9453125	20233.65625	20500.650390625	20628.208984375	21517.82421875	20010.943359375	18993.78125	20191.4140625	20202.734375	21628.259765625	18593.416015625	21171.369140625	21351.318359375
1800	2100	20360.44140625	19895.68359375	16219.23828125	20676.962890625	16293.6298828125	21862.376953125	23141.162109375	16060.5263671875	16900.642578125	18888.98828125	11398.9453125	19426.509765625	20658.671875	11503.1396484375	19982.671875	20015.103515625	15970.802734375	20902.2578125	15981.4541015625	20690.845703125	22604.275390625	17515.685546875	18497.16796875	17288.892578125	20453.87109375	14262.7060546875	5279.1025390625	11500.35546875	14823.306640625	20762.529296875	13982.94921875	12454.90625	20901.931640625	19315.544921875	18623.166015625	19633.755859375	18481.76171875	20962.01953125	17814.931640625	20540.564453125	19363.341796875	18692.287109375	20197.001953125	20696.814453125	19824.890625	18499.88671875	18554.05859375	18243.68359375	19156.623046875	20229.697265625	19304.32421875	20894.435546875	17548.6875	20567.251953125	18877.591796875	19013.73828125	19516.8515625	20496.16015625	18873.2265625	17019.623046875	18692.5	18684.755859375	19982.1875	19181.13671875	20968.568359375	20463.537109375	20614.513671875	19071.89453125	18521.28125	18795.146484375	17573.458984375	19285.646484375	18700.80078125	19280.861328125	19656.990234375	18959.912109375	19454.38671875	20158.197265625	19246.814453125	19229.107421875	18141.466796875	18618.82421875	19700.59375	18580.0078125	19620.591796875	21281.94921875	17813.962890625	20414.509765625	18775.025390625	18778.640625	18840.00390625	19941.267578125	18361.25	17576.306640625	18905.744140625	18650.353515625	19671.39453125	17406.302734375	20181.625	19827.501953125
2100	2400	19230.9765625	18507.611328125	14542.3544921875	18247.986328125	15160.818359375	20022.609375	20871.142578125	14714.935546875	15628.4833984375	16645.609375	10645.513671875	17020.7421875	19475.046875	10914.201171875	19015.447265625	18366.744140625	14363.03125	18720.40234375	14836.1123046875	19252.76953125	20983.955078125	16465.28125	16828.318359375	16360.8330078125	19083.91796875	12730.3759765625	5162.7861328125	11257.0029296875	13985.8818359375	19790.029296875	13184.7265625	12361.8056640625	19670.44140625	18026.8828125	17331.44140625	18138.552734375	16853.572265625	19538.279296875	16580.716796875	19223.189453125	17636.9375	17544.02734375	19133.40234375	19432.9296875	18277.4296875	17528.451171875	17038.76953125	16983.041015625	17880.18359375	18713.169921875	18033.232421875	20016.0390625	16465.63671875	18549.875	17328.181640625	17686.248046875	17727.287109375	18909.6796875	17456.736328125	15781.9736328125	17402.083984375	17458.814453125	18410.328125	17944.224609375	18810.26953125	19121.552734375	19044.296875	18203.904296875	17266.142578125	17300.013671875	16645.404296875	18271.7890625	17262.61328125	18102.55078125	18401.5859375	17769.826171875	18110.33203125	19097.884765625	18177.697265625	17994.744140625	17794.625	17170.556640625	18892.421875	17241.642578125	18124.923828125	19784.322265625	16590.7265625	18598.6328125	17326.443359375	17445.171875	17784.21484375	18782.240234375	16927.05078125	16416.462890625	17603.544921875	17435.06640625	17987.046875	17300.271484375	18775.837890625	18699.41015625
2400	2700	18353.517578125	17450.794921875	13225.1787109375	16800.37109375	13375.6455078125	17984.712890625	19060.69921875	13952.6259765625	14731.6982421875	15920.0615234375	10249.369140625	15645.646484375	17385.515625	10801.99609375	18056.328125	17341.71484375	12901.94140625	16330.271484375	12958.9697265625	17689.3515625	18736.478515625	15061.6298828125	15123.642578125	14259.306640625	17209.21484375	12066.0029296875	5215.0361328125	11019.15625	11970.36328125	18168.4921875	12547.6640625	12237.8203125	17805.498046875	17356.126953125	15913.9375	16898.482421875	16829.80859375	18764.51171875	15258.935546875	17889.580078125	16630.640625	16363.0966796875	17689.6015625	18260.78515625	17464.306640625	16263.060546875	16100.650390625	15418.0927734375	16763.58984375	16727.15234375	17257.4921875	18975.9140625	15450.9228515625	17430.41015625	16113.265625	16435.755859375	17198.767578125	17788.466796875	16271.4501953125	14913.3740234375	16404.955078125	16391.234375	17819.875	17245.126953125	17382.2734375	17958.33203125	18351.376953125	16721.947265625	16311.2822265625	16176.3310546875	15259.5380859375	17202.849609375	16393.2890625	16713.697265625	16792.841796875	16841.083984375	16744.314453125	18044.8671875	17087.44921875	16946.65625	16436.609375	16146.591796875	17129.10546875	16283.8935546875	17038.6640625	19003.904296875	15531.0537109375	17700.423828125	16396.666015625	16207.3359375	16890.689453125	17670.310546875	16046.646484375	15343.708984375	16622.6171875	16500.423828125	17070.443359375	15506.2294921875	17160.94921875	17545.125
