frame_start	frame_end	Left-Cerebral-White-Matter	Left-Cerebellum-White-Matter	Left-Cerebellum-Cortex	Left-Thalamus	Left-Caudate	Left-Putamen	Left-Pallidum	Brain-Stem	Left-Hippocampus	Left-Amygdala	CSF	Left-Accumbens-area	Left-VentralDC	Left-choroid-plexus	Right-Cerebral-White-Matter	Right-Cerebellum-White-Matter	Right-Cerebellum-Cortex	Right-Thalamus	Right-Caudate	Right-Putamen	Right-Pallidum	Right-Hippocampus	Right-Amygdala	Right-Accumbens-area	Right-VentralDC	Right-choroid-plexus	AirCavity	Skull	Vermis	Pons	CSF-ExtraCerebral	Head-ExtraCerebral	ctx-lh-bankssts	ctx-lh-caudalanteriorcingulate	ctx-lh-caudalmiddlefrontal	ctx-lh-cuneus	ctx-lh-entorhinal	ctx-lh-fusiform	ctx-lh-inferiorparietal	ctx-lh-inferiortemporal	ctx-lh-isthmuscingulate	ctx-lh-lateraloccipital	ctx-lh-lateralorbitofrontal	ctx-lh-lingual	ctx-lh-medialorbitofrontal	ctx-lh-middletemporal	ctx-lh-parahippocampal	ctx-lh-paracentral	ctx-lh-parsopercularis	ctx-lh-parsorbitalis	ctx-lh-parstriangularis	ctx-lh-pericalcarine	ctx-lh-postcentral	ctx-lh-posteriorcingulate	ctx-lh-precentral	ctx-lh-precuneus	ctx-lh-rostralanteriorcingulate	ctx-lh-rostralmiddlefrontal	ctx-lh-superiorfrontal	ctx-lh-superiorparietal	ctx-lh-superiortemporal	ctx-lh-supramarginal	ctx-lh-frontalpole	ctx-lh-temporalpole	ctx-lh-transversetemporal	ctx-lh-insula	ctx-rh-bankssts	ctx-rh-caudalanteriorcingulate	ctx-rh-caudalmiddlefrontal	ctx-rh-cuneus	ctx-rh-entorhinal	ctx-rh-fusiform	ctx-rh-inferiorparietal	ctx-rh-inferiortemporal	ctx-rh-isthmuscingulate	ctx-rh-lateraloccipital	ctx-rh-lateralorbitofrontal	ctx-rh-lingual	ctx-rh-medialorbitofrontal	ctx-rh-middletemporal	ctx-rh-parahippocampal	ctx-rh-paracentral	ctx-rh-parsopercularis	ctx-rh-parsorbitalis	ctx-rh-parstriangularis	ctx-rh-pericalcarine	ctx-rh-postcentral	ctx-rh-posteriorcingulate	ctx-rh-precentral	ctx-rh-precuneus	ctx-rh-rostralanteriorcingulate	ctx-rh-rostralmiddlefrontal	ctx-rh-superiorfrontal	ctx-rh-superiorparietal	ctx-rh-superiortemporal	ctx-rh-supramarginal	ctx-rh-frontalpole	ctx-rh-temporalpole	ctx-rh-transversetemporal	ctx-rh-insula
0	30	264.6801452636719	456.5777587890625	1014.59521484375	1284.5401611328125	1719.9921875	1734.699462890625	118.51033782958984	861.5643920898438	1601.4869384765625	1816.58154296875	238.87843322753906	127.21543884277344	1386.4974365234375	4621.2763671875	322.1495666503906	440.7046813964844	1026.77294921875	1571.94921875	1596.7169189453125	1456.5767822265625	464.3260803222656	1349.072998046875	772.141845703125	3348.90478515625	583.9780883789062	3608.446533203125	43.05427551269531	341.8182067871094	648.73876953125	751.1318969726562	1016.9357299804688	346.0213317871094	1736.798828125	2984.8408203125	1994.621826171875	2175.85595703125	1368.7896728515625	1288.764892578125	1610.59423828125	1140.2874755859375	1264.63427734375	1839.7003173828125	1759.6116943359375	2260.174072265625	3087.8583984375	1229.178955078125	1424.534423828125	1860.3895263671875	1908.680908203125	2390.23193359375	2307.6171875	2720.318603515625	1610.7869873046875	1724.2457275390625	1768.2978515625	2153.79345703125	1757.9019775390625	2009.4766845703125	1882.9443359375	1078.6143798828125	2000.9573974609375	2027.271240234375	1829.16162109375	556.1798706054688	2727.944580078125	2559.4453125	2001.12060546875	1882.0179443359375	1614.5084228515625	2987.981689453125	3114.86962890625	1532.6357421875	1340.3023681640625	1025.0938720703125	1784.6259765625	1410.9798583984375	2188.693603515625	2268.4169921875	1794.171142578125	1375.6947021484375	1648.6533203125	1504.8641357421875	2146.258544921875	1504.042236328125	2088.183349609375	2497.51708984375	1428.3538818359375	1919.6136474609375	1553.6700439453125	1744.485595703125	2722.475830078125	1740.1099853515625	1451.824462890625	1387.4022216796875	1409.86279296875	1666.1038818359375	2868.844482421875	624.5501708984375	3864.78564453125	2243.462158203125
30	60	2786.177734375	5676.31884765625	12900.4140625	13585.7705078125	18992.41796875	19359.337890625	5701.7529296875	7615.078125	12555.8544921875	10538.3955078125	2523.31591796875	17231.9609375	10079.8291015625	47684.62109375	3194.6201171875	5801.29150390625	12257.1064453125	14431.3837890625	16156.1396484375	18450.59765625	5050.654296875	10232.546875	8904.880859375	15029.421875	10146.052734375	42974.63671875	443.4662780761719	3226.75048828125	15132.013671875	9517.4169921875	7097.92138671875	3187.620849609375	18982.208984375	20657.150390625	21074.31640625	26882.791015625	10895.580078125	15861.2275390625	18082.541015625	16265.890625	14768.71484375	20499.962890625	19944.708984375	22116.18359375	20241.126953125	15899.9365234375	8443.0009765625	16928.697265625	23539.60546875	22363.89453125	23221.37109375	31249.208984375	18726.20703125	20976.123046875	18985.392578125	20977.1328125	15709.1630859375	21497.189453125	20063.388671875	16734.384765625	16155.578125	21236.40234375	26871.798828125	7191.86181640625	27838.564453125	15716.33984375	16743.490234375	17192.587890625	21707.181640625	29262.962890625	17935.41015625	12948.5322265625	17512.255859375	14709.2080078125	17747.271484375	20479.48828125	19492.466796875	19628.107421875	16592.28515625	14630.05078125	11274.94921875	18706.046875	19587.328125	17149.3203125	21025.59765625	27292.37109375	17587.673828125	20968.298828125	17725.919921875	20711.05859375	17584.615234375	19922.25390625	16971.337890625	16509.03515625	14385.2783203125	19635.708984375	23671.6484375	9472.3193359375	31510.1015625	15054.4287109375
60	90	6178.41064453125	12355.2919921875	28168.93359375	29577.890625	43832.953125	41952.68359375	10130.3359375	16186.1220703125	25247.294921875	19623.890625	5457.7099609375	30459.79296875	19164.7109375	81152.4921875	6950.455078125	12930.1591796875	27593.001953125	30758.009765625	39024.43359375	39158.9296875	12946.9423828125	22017.7734375	21813.685546875	21611.888671875	22860.666015625	85200.390625	1023.1773071289062	6952.5810546875	32525.1796875	21339.21484375	10474.373046875	7014.568359375	41756.05078125	40990.19921875	47206.1640625	56170.0546875	25919.0078125	32965.8046875	42321.59765625	37330.39453125	44065.31640625	46886.56640625	43138.58203125	48923.6015625	43533.98046875	34685.41015625	20476.744140625	41897.5078125	48239.41015625	46390.55078125	53041.79296875	72465.6640625	44636.12890625	45016.45703125	43568.7109375	45749.23828125	33226.29296875	50173.01953125	44632.8828125	40480.49609375	34098.45703125	45650.5546875	54153.390625	19217.474609375	58069.265625	32110.458984375	36597.015625	38984.70703125	46716.89453125	65449.63671875	40903.890625	28667.0	41904.2421875	34034.49609375	42456.59765625	46404.91796875	41158.69921875	45213.62890625	37332.87890625	34459.53125	20640.794921875	37851.08984375	43650.40625	40253.2265625	45563.3671875	65918.125	42714.7421875	43675.83984375	40397.98046875	46450.80859375	28729.8671875	45951.3046875	40932.8359375	41068.64453125	31657.03125	44095.11328125	46305.3828125	19288.822265625	57911.5859375	30667.09375
90	120	10087.0146484375	21182.796875	44131.484375	45968.31640625	67738.671875	68420.390625	15938.169921875	26282.1328125	38801.99609375	33702.90234375	6403.3125	44468.75	32156.923828125	132672.484375	11067.451171875	20064.109375	42875.7578125	49704.65234375	63322.77734375	63620.25	20602.63671875	35848.21484375	31481.09765625	48826.6796875	32602.17578125	135319.28125	1468.384521484375	10782.2109375	51775.796875	33678.7421875	12376.3681640625	10970.5712890625	65494.2578125	63711.01171875	74546.671875	88293.359375	42749.12890625	49190.171875	65483.125	59718.25390625	60440.83984375	72624.3203125	67786.671875	75452.296875	67735.1328125	55074.56640625	35380.09375	69898.5625	73152.7265625	77891.3125	79522.8046875	113077.2265625	68209.2734375	70029.90625	68080.1015625	68388.421875	48343.8125	79262.671875	70292.875	65377.50390625	52491.69921875	70905.3671875	85899.359375	32759.033203125	97403.5	49274.43359375	58353.3515625	45220.15625	71043.9296875	93924.7421875	53858.0078125	46657.19140625	61866.7109375	53259.4921875	63479.41796875	73191.5078125	64215.6796875	65493.14453125	56160.04296875	53096.92578125	36379.0859375	61193.9609375	70902.59375	65495.1484375	71878.171875	102013.484375	68651.828125	63084.265625	64760.265625	70742.7578125	42445.82421875	73836.4921875	65459.30859375	68229.6953125	48472.03515625	65821.4375	89819.4921875	30284.0	100159.1953125	44158.23828125
120	150	12809.54296875	25141.79296875	55891.85546875	56611.44921875	81528.890625	85241.4140625	25842.564453125	31181.05078125	49141.05078125	38960.16015625	7828.29541015625	70712.546875	39573.578125	139876.234375	13722.3515625	24378.361328125	53661.51953125	62834.33203125	76267.828125	81745.9609375	21573.8515625	45176.1875	35766.4296875	41853.80078125	40216.5859375	140212.921875	1615.9776611328125	13025.001953125	59619.296875	43530.67578125	9844.67578125	13635.4169921875	81703.4609375	83000.5234375	94299.7109375	112860.4140625	54384.4453125	61748.5	82076.6953125	75694.6484375	66122.5546875	91244.078125	84595.0390625	88425.0703125	81531.8359375	70634.796875	37501.53515625	81081.7734375	91068.6015625	99625.4921875	98490.3125	129196.984375	89752.4453125	83370.40625	85752.1953125	89004.4921875	61933.8359375	98492.4375	87049.921875	84724.7890625	66254.6953125	88524.0390625	100849.828125	43531.9765625	114535.0546875	59064.04296875	73575.8203125	53643.78125	91236.03125	111851.4765625	70000.3984375	59127.65234375	81008.40625	66287.4921875	85037.1328125	90116.671875	80240.4921875	82824.5625	74410.9453125	66150.6796875	44411.49609375	84613.046875	85642.8359375	82492.1796875	91304.84375	129569.984375	88413.6328125	76521.5546875	80636.453125	87590.2890625	55343.22265625	91466.015625	83357.8984375	85759.65625	63377.8046875	81710.3203125	106105.3125	41687.51171875	105290.625	52431.3359375
150	180	13249.3603515625	26713.796875	55113.625	59277.81640625	81879.6875	86549.78125	18552.18359375	31288.861328125	45668.5078125	38205.38671875	6384.58203125	68017.265625	41858.859375	114244.1953125	14012.9599609375	25456.3515625	53799.03515625	59772.734375	76210.890625	78896.46875	28305.142578125	42687.29296875	41644.60546875	50635.18359375	39832.18359375	118697.171875	1510.017333984375	12894.228515625	60256.1171875	42441.02734375	6076.74560546875	13585.43359375	79128.0234375	70791.703125	93527.796875	112209.390625	48969.85546875	62736.11328125	84970.3515625	75666.2109375	74472.078125	91322.390625	85430.4140625	86611.53125	78705.40625	70274.9921875	46270.11328125	90741.703125	91477.234375	96129.171875	94945.3828125	135870.34375	93071.609375	83453.3515625	86766.5390625	90944.59375	64916.5078125	97162.3046875	87143.6328125	87687.1796875	66802.875	86976.0078125	110120.140625	40056.8515625	114174.375	58307.140625	77628.0234375	65184.7109375	92409.9140625	106203.9921875	61557.7109375	57431.421875	83629.421875	68979.9765625	80236.6796875	92805.3125	76887.90625	81824.8359375	75051.1796875	67550.4609375	53280.79296875	75424.046875	83495.2890625	83039.2265625	89241.46875	126601.0390625	93314.734375	81290.6015625	83765.609375	90074.2578125	49225.42578125	93646.7265625	83597.109375	91107.7421875	65305.62890625	81479.15625	107814.2421875	43723.9609375	111161.6171875	53616.26953125
180	240	13644.7919921875	25334.408203125	52740.38671875	57249.62109375	78821.6640625	83069.0546875	23269.330078125	30405.904296875	42356.84765625	40368.47265625	4419.330078125	63723.44140625	40302.7421875	109839.8203125	14338.6669921875	24780.966796875	51393.20703125	60549.578125	75719.3671875	76938.9609375	28774.263671875	43100.76171875	40230.6796875	46693.84765625	39922.7890625	92413.171875	993.2386474609375	12281.1396484375	59580.76171875	42389.90234375	4771.86376953125	13743.9248046875	76724.9296875	74664.625	88607.15625	105293.1484375	49576.0703125	60925.41796875	79420.8359375	73248.609375	66719.6015625	85188.90625	81173.0859375	82077.7734375	79291.2265625	68343.46875	42772.890625	82589.828125	83658.171875	90313.3125	91448.484375	124597.2734375	88309.21875	79352.7421875	84746.1484375	85002.984375	57284.74609375	94264.9765625	83534.5625	85536.4765625	65022.38671875	81483.9609375	97275.84375	41039.9921875	102327.8046875	57686.28515625	70316.4296875	52265.53125	85543.46875	103865.6640625	54590.24609375	58351.9375	79457.5625	65276.02734375	77336.015625	86941.0546875	77075.4453125	76590.8203125	72055.296875	65170.46484375	48453.41796875	81302.5078125	78564.6171875	80382.7578125	85838.8203125	114669.7265625	87046.40625	74345.171875	79392.3515625	84677.375	49982.546875	89824.8515625	80579.7109375	86346.328125	62720.1875	79118.640625	101841.1171875	42653.49609375	94304.5703125	50431.87890625
240	300	13993.08984375	24367.423828125	49282.9921875	54229.03515625	75069.6328125	76843.46875	24482.099609375	28836.869140625	42425.94921875	38959.75390625	2804.227783203125	62468.18359375	36097.35546875	89070.5	14730.3056640625	24004.177734375	47830.89453125	58582.55859375	70799.09375	71145.703125	28155.2421875	41571.28125	41011.41015625	42824.46484375	40004.8125	76498.8203125	623.2174682617188	11827.6484375	51413.47265625	39494.65625	3217.826904296875	13435.2900390625	71858.078125	69542.2421875	80640.3671875	96878.4375	50740.80078125	56992.80078125	74490.015625	67749.203125	64886.171875	78198.0625	74737.2109375	76121.3359375	72247.71875	62857.625	41910.140625	77468.4296875	75658.2109375	82336.1171875	83529.40625	110007.6328125	82793.6171875	71717.6015625	77208.34375	77039.0625	55403.75	86565.453125	77959.8125	79377.2890625	60472.8828125	75567.078125	91223.1484375	40553.15625	91545.328125	56193.1328125	67059.7578125	54342.05859375	81511.8046875	90364.1015625	52837.12109375	55221.84765625	73328.546875	61056.265625	69791.046875	80198.703125	67945.890625	71145.09375	68019.1015625	63051.87890625	49816.81640625	72210.59375	74161.7890625	75271.2421875	80741.1328125	104669.0546875	81401.6796875	71355.140625	75160.2109375	78607.890625	52756.2109375	83317.7578125	73770.3203125	80300.515625	60749.5078125	72784.984375	98076.453125	41268.44140625	84732.265625	48267.38671875
300	360	14623.6123046875	24874.650390625	44755.45703125	50440.89453125	68065.390625	70647.1015625	21495.64453125	28818.791015625	38105.39453125	37761.0859375	2794.43994140625	59250.08984375	37329.8359375	75637.015625	15103.87890625	23395.998046875	44339.47265625	53457.36328125	63210.515625	65287.59765625	27611.962890625	36375.65234375	41053.68359375	50214.92578125	36546.69921875	63111.22265625	231.10647583007812	11689.9384765625	47733.67578125	36613.125	3581.95654296875	13327.7734375	65961.390625	65637.6953125	72782.2421875	87115.9609375	48008.43359375	52528.21484375	67143.8671875	63407.34765625	58345.07421875	70769.7421875	66007.5234375	69542.390625	68064.15625	57686.31640625	39725.20703125	70764.59375	68809.4140625	71336.6328125	74072.203125	95844.6484375	72966.796875	64835.10546875	69893.8671875	67828.2890625	52196.13671875	77291.421875	68591.46875	71106.5234375	56627.60546875	68198.7890625	85069.9765625	40969.58203125	75155.65625	51856.98046875	61331.84765625	49827.6484375	70539.328125	82855.359375	52935.59765625	49412.78125	66788.484375	56073.859375	61525.484375	72341.8671875	60580.53125	65617.40625	62975.84765625	56597.31640625	48146.94140625	64961.60546875	64521.58203125	64650.0703125	71103.8203125	89838.28125	73896.4453125	62820.9375	67007.5	68682.46875	44853.94921875	73468.5390625	66082.9375	71930.4453125	56103.75	64619.4375	88690.7265625	40747.25	76032.8359375	43893.66796875
360	480	15211.7578125	23903.154296875	39835.453125	47757.28515625	57647.1015625	60190.57421875	26255.208984375	27537.8203125	34270.58984375	38532.3515625	1499.3316650390625	60727.87890625	34689.1640625	48374.8125	15471.115234375	23580.357421875	39275.34375	49768.765625	56098.15234375	57226.6328125	28113.109375	35004.77734375	38534.44921875	34798.5546875	35401.17578125	55345.96875	-26.506254196166992	11398.22265625	40272.20703125	34453.75390625	2300.76953125	13068.658203125	56004.24609375	56261.1015625	62760.5625	74729.984375	45359.83203125	49103.95703125	57543.42578125	55082.87890625	52064.84765625	59931.50390625	57323.06640625	61769.73828125	59229.1640625	53498.734375	36472.45703125	63928.58984375	58903.48046875	65186.69140625	63743.15625	78348.78125	63689.859375	55955.2421875	60736.66796875	59818.140625	47962.23828125	67557.65625	60627.234375	62232.140625	50975.33984375	59649.00390625	77705.953125	40028.875	65268.171875	49482.5390625	54580.17578125	42293.359375	62113.73828125	71399.5625	47049.765625	45550.50390625	58625.91015625	50728.140625	53846.78515625	62966.703125	54027.9921875	56956.65625	54049.66015625	50651.16796875	41208.89453125	57676.78125	57164.078125	56338.125	61990.703125	74024.9296875	63819.421875	54415.1640625	58956.26953125	60320.875	42068.83984375	65315.359375	58485.75390625	64178.5234375	51012.8359375	56825.34375	75432.359375	39370.76953125	58663.41015625	42557.10546875
480	600	15919.26171875	23679.244140625	34513.47265625	43478.7421875	48943.92578125	53801.23828125	24949.044921875	26002.333984375	30124.4375	36785.21484375	1069.1292724609375	51627.05078125	33895.265625	28053.458984375	15909.7041015625	23153.376953125	34549.91796875	45790.80078125	48474.4375	48637.859375	27923.2578125	30569.74609375	36824.74609375	38753.13671875	35508.421875	30475.45703125	-130.969970703125	11197.544921875	35377.32421875	31240.994140625	1074.3680419921875	12957.138671875	48239.48828125	49865.15234375	53423.51171875	63772.7890625	40023.60546875	42450.11328125	48189.5546875	48727.0703125	46104.828125	50388.25390625	50620.2421875	50062.51953125	50468.29296875	45884.125	33405.6796875	53958.3125	50837.421875	56151.6796875	54273.91796875	63547.6796875	55478.171875	48538.77734375	52167.7890625	51351.4453125	42137.125	57394.28515625	52494.29296875	53041.1875	44938.85546875	51017.18359375	66212.8828125	38887.8515625	55600.1171875	44646.45703125	44633.203125	39684.7734375	52407.99609375	62478.8125	44843.34375	38693.25	51104.87890625	46161.76953125	47590.875	53318.32421875	45862.98046875	49530.18359375	47554.109375	45074.09765625	39217.1796875	49856.0546875	48896.39453125	51395.875	54233.07421875	59293.625	53717.41015625	49428.4765625	51478.75390625	51238.06640625	35159.6640625	56715.12109375	51279.2265625	54730.67578125	46007.26953125	48675.66015625	65701.875	35861.35546875	46698.6953125	39591.59375
600	900	17313.73828125	23980.521484375	29010.349609375	38311.69921875	39477.01953125	43414.6328125	27281.2734375	24186.044921875	26250.095703125	33194.03515625	532.0057983398438	41424.5390625	32801.3125	22589.759765625	16844.77734375	23022.666015625	29063.0625	40744.27734375	38199.71484375	41150.109375	28935.609375	27221.044921875	33616.66015625	33095.0234375	33231.5234375	23421.765625	-369.0050964355469	11309.3232421875	28902.783203125	29655.05078125	1414.6075439453125	13335.142578125	41296.37890625	42848.4453125	43672.578125	52136.9765625	40300.58203125	36338.48828125	40445.0234375	42134.2734375	37466.47265625	40190.765625	42347.9453125	43098.7421875	41935.6015625	38697.00390625	28486.2890625	42914.97265625	41488.33984375	45362.94140625	45258.35546875	51966.9375	45062.91015625	42177.46484375	43494.45703125	42141.26953125	34603.33984375	47937.171875	43335.7421875	44007.2421875	38514.34375	42100.16796875	56997.8046875	35341.38671875	45363.4140625	39202.06640625	38404.72265625	36132.453125	43893.65234375	49352.69921875	40914.12109375	34293.7421875	42532.4375	39874.9609375	43376.203125	43271.3125	39937.98828125	40909.66796875	41526.2890625	38659.69921875	34441.09375	43356.28125	41363.9453125	41954.09765625	44932.7734375	49214.44140625	45684.75390625	42255.203125	43637.96875	42379.04296875	33282.6015625	47398.01171875	43219.4140625	46052.6640625	39149.9609375	41352.81640625	56205.15625	33391.62109375	39348.453125	34153.125
900	1200	18893.400390625	24414.84765625	24867.681640625	34119.82421875	32663.13671875	36181.16015625	27165.251953125	22841.943359375	23109.720703125	31742.94921875	151.8769989013672	37032.484375	31208.8359375	15286.21875	18175.265625	23931.810546875	25007.12109375	35865.89453125	31758.34375	34897.48828125	28982.625	24892.943359375	31220.673828125	27324.49609375	31310.81640625	23063.00390625	-434.5583190917969	11728.2880859375	24714.662109375	28222.345703125	1502.55078125	14089.78515625	35175.69140625	35807.0234375	36052.7890625	45303.8046875	37064.80078125	32344.703125	34234.38671875	37560.74609375	36580.7265625	34817.53125	39004.3828125	38217.8671875	37550.6640625	34072.140625	24978.0	36352.4609375	35200.17578125	40398.52734375	38272.67578125	43521.859375	38751.28125	35079.4296875	38356.23828125	36054.9375	32259.44921875	41635.44140625	37496.8203125	37612.22265625	33985.53515625	35964.76953125	48095.8828125	33556.01171875	40170.1328125	35463.67578125	33624.08203125	33974.171875	38296.44921875	42492.2734375	34551.8515625	30555.109375	36510.06640625	35268.6171875	36792.296875	37513.2734375	35290.0625	35859.0859375	36473.75	34245.49609375	30546.931640625	38614.62109375	36301.1484375	37654.20703125	39171.203125	41770.2109375	38863.58984375	37632.71875	38017.9375	36531.4375	29832.076171875	41169.796875	37328.94921875	40048.2578125	35106.08203125	36172.56640625	51151.640625	30516.361328125	35536.4921875	31191.986328125
1200	1500	19676.701171875	24245.001953125	21603.560546875	30561.072265625	27619.96484375	30782.2109375	27469.822265625	21140.845703125	20917.646484375	28153.408203125	278.8350830078125	30512.72265625	28895.802734375	4846.8271484375	19000.625	23768.3125	21803.48828125	31543.7578125	26793.970703125	29259.08984375	28767.216796875	21984.125	27643.203125	22362.48828125	30140.140625	16335.47265625	-610.9201049804688	12034.025390625	19898.916015625	26991.001953125	1827.902099609375	14775.599609375	32058.65625	33038.21484375	32818.97265625	42045.62109375	34094.6953125	30113.4765625	29937.314453125	33159.4609375	31555.5703125	29952.51953125	34029.7578125	34302.71484375	33174.15625	29898.775390625	21918.2890625	31211.2265625	31343.287109375	36329.625	33091.8203125	37486.12890625	33623.9921875	32327.0234375	33254.140625	32047.205078125	25983.4140625	36887.48828125	33277.2890625	33372.52734375	30202.16796875	32228.38671875	46416.984375	30765.05859375	38673.0234375	32603.38671875	29097.484375	31430.853515625	32208.65234375	37045.9921875	33317.05859375	27532.40625	32361.224609375	31724.203125	33399.08984375	33271.78515625	30968.814453125	32313.11328125	32297.296875	30847.25390625	28816.96484375	34703.84375	32712.37890625	32665.40625	34683.515625	38379.9921875	34607.125	33388.4453125	34231.72265625	32523.474609375	28184.33203125	36543.00390625	33073.9140625	35901.24609375	30915.9765625	32275.80859375	48050.609375	27609.607421875	31816.75390625	28734.173828125
1500	1800	20180.9453125	23505.765625	18756.701171875	27136.02734375	24231.14453125	26641.921875	26355.626953125	19032.8125	17163.513671875	25919.6171875	241.1404266357422	21324.236328125	27497.20703125	789.2694702148438	19106.142578125	23113.658203125	19127.337890625	27351.36328125	22531.45703125	25537.853515625	26328.0859375	21642.828125	23994.041015625	16891.25	27858.1484375	15115.787109375	-695.23193359375	12042.3935546875	17298.63671875	25417.09765625	2374.831298828125	15149.505859375	28395.92578125	29892.41796875	27647.115234375	35113.6328125	32678.138671875	27899.84765625	25825.576171875	30233.181640625	28840.4375	25960.349609375	30028.568359375	31291.42578125	29210.94140625	25125.765625	20472.015625	28323.181640625	28227.8515625	32529.51171875	30396.849609375	34212.9609375	29749.32421875	29253.359375	28798.595703125	27742.455078125	26585.302734375	31551.748046875	28498.294921875	28764.607421875	26809.736328125	27903.3125	43157.3046875	27986.75390625	33139.11328125	29164.763671875	25026.890625	25920.4921875	29630.1640625	32016.623046875	27682.4453125	24699.9375	28959.287109375	29545.12890625	30908.33984375	30294.45703125	28458.73828125	28873.6796875	28815.783203125	28060.10546875	25226.76953125	27249.9140625	27978.40234375	30315.56640625	32049.07421875	33451.03515625	30756.17578125	31638.55078125	30383.814453125	29303.90625	25572.22265625	33031.859375	29299.451171875	31257.111328125	27552.51171875	28704.474609375	43066.9609375	24144.37109375	29026.47265625	26199.396484375
1800	2100	20277.708984375	22362.853515625	16355.986328125	23456.8046875	19821.033203125	22817.77734375	25317.92578125	17068.869140625	15201.7080078125	23640.228515625	510.402099609375	16351.037109375	24977.587890625	-4960.24169921875	19194.283203125	22432.568359375	16442.890625	24297.1875	19359.5	21173.568359375	25624.08203125	17304.0390625	22309.7265625	9039.97265625	24769.10546875	17357.748046875	-662.3843383789062	11970.1357421875	15190.8720703125	23704.658203125	2963.6513671875	15318.39453125	25928.240234375	25959.453125	23894.451171875	30515.810546875	28508.7265625	26413.3203125	22793.232421875	26944.923828125	24278.349609375	23440.0390625	25982.62109375	28240.119140625	26374.029296875	22444.662109375	19380.78515625	22376.453125	24079.404296875	28067.14453125	24585.17578125	28128.05078125	24770.263671875	26107.458984375	24888.419921875	24063.2734375	23597.380859375	28002.93359375	24586.4296875	24883.640625	23331.193359375	24424.29296875	38647.8125	26067.6484375	32070.794921875	26092.58984375	24111.625	24563.576171875	25087.8359375	29094.22265625	23797.658203125	22523.416015625	26613.48828125	26575.73046875	27385.087890625	26843.078125	24932.640625	27503.21875	25863.62109375	24684.4609375	22424.06640625	26397.912109375	25698.20703125	25596.521484375	28762.931640625	30268.54296875	26796.552734375	27093.2734375	26815.2578125	24952.85546875	22036.259765625	29398.373046875	25580.783203125	27346.701171875	24911.435546875	25299.447265625	38583.078125	21822.4375	27475.76953125	23448.15234375
2100	2400	19676.47265625	21407.091796875	14216.04296875	20348.62109375	17910.76171875	20383.587890625	21939.470703125	14910.892578125	14471.0771484375	19274.76171875	525.893798828125	11014.8193359375	23545.787109375	-5617.77197265625	18808.91796875	20852.3671875	14471.5068359375	21359.083984375	17174.302734375	19122.900390625	24043.8984375	16179.65625	19667.87109375	8726.2412109375	23051.439453125	10011.7607421875	-671.2385864257812	11718.1162109375	14636.4111328125	22837.75390625	3600.483154296875	15259.5185546875	23364.38671875	23875.62109375	21160.083984375	26105.189453125	24902.7109375	24681.4296875	20114.05859375	24761.38671875	19474.96484375	21136.765625	24328.919921875	26223.181640625	22874.375	20540.68359375	16018.4853515625	20312.212890625	21588.009765625	25400.3203125	21724.748046875	27510.123046875	22792.67578125	21766.615234375	21537.70703125	21706.173828125	19755.529296875	24802.130859375	21894.640625	21915.689453125	21112.767578125	21877.712890625	35978.2734375	23702.291015625	27587.1015625	23773.419921875	22296.744140625	23050.318359375	22234.490234375	25326.23828125	20786.841796875	21167.810546875	23530.646484375	24482.439453125	25233.921875	24189.625	22211.1171875	25625.06640625	24331.98828125	22367.037109375	22987.666015625	22364.947265625	24769.38671875	23562.41015625	24977.12890625	27077.4765625	24050.763671875	24257.369140625	23725.3828125	22336.16015625	20915.939453125	26865.625	22330.720703125	24238.375	22241.9296875	22547.048828125	33374.8359375	22254.662109375	25064.947265625	21844.015625
2400	2700	19344.71484375	20394.57421875	12661.71484375	18444.54296875	13901.01171875	17297.0078125	20176.287109375	14306.169921875	13262.908203125	17939.71484375	1241.1656494140625	7791.779296875	20214.474609375	-3611.149169921875	18359.98046875	20207.54296875	12590.3154296875	17939.12109375	13360.2861328125	17267.041015625	20451.40234375	14445.6005859375	16571.96484375	4651.68115234375	20449.294921875	6618.70751953125	-475.22613525390625	11476.7294921875	11610.3544921875	20608.759765625	4211.765625	15147.0517578125	20078.52734375	22612.626953125	17869.578125	24117.271484375	25179.40234375	23849.41796875	17265.912109375	21993.783203125	18903.359375	18885.6328125	21283.478515625	23501.28515625	21982.126953125	18332.759765625	14924.732421875	16140.7529296875	19433.5703125	20158.2734375	20261.16015625	24707.751953125	20501.08984375	19611.828125	18809.27734375	18986.302734375	19616.015625	22524.09375	19368.630859375	19571.79296875	19176.884765625	19591.236328125	33370.1796875	22488.51171875	23312.8671875	22143.955078125	20774.318359375	19749.5546875	20106.900390625	22115.939453125	18465.158203125	19743.224609375	21617.033203125	21197.333984375	20062.09375	22049.236328125	19313.87890625	24065.6328125	22157.40234375	20549.01953125	20188.056640625	20379.55078125	20924.587890625	21289.923828125	22690.380859375	25283.16796875	20756.435546875	22603.361328125	21797.228515625	19914.16796875	18896.07421875	24599.611328125	20333.7890625	21358.1875	20471.28125	21003.8671875	31539.08203125	18386.587890625	21543.849609375	20399.134765625
