frame_start	frame_end	Left-AV	Left-CeM	Left-CL	Left-CM	Left-LD	Left-LGN	Left-LP	Left-L-Sg	Left-MDl	Left-MDm	Left-MGN	Left-MV(Re)	Left-Pf	Left-PuA	Left-PuI	Left-PuL	Left-PuM	Left-VA	Left-VAmc	Left-VLa	Left-VLp	Left-VM	Left-VPL	Right-AV	Right-CeM	Right-CL	Right-CM	Right-LD	Right-LGN	Right-LP	Right-L-Sg	Right-MDl	Right-MDm	Right-MGN	Right-MV(Re)	Right-Pc	Right-Pf	Right-PuA	Right-PuI	Right-PuL	Right-PuM	Right-VA	Right-VAmc	Right-VLa	Right-VLp	Right-VM	Right-VPL
0	30	0.46511	0.15038	0.12572	3.15827	0.13073	1.23249	0.15255	3.55325	0.39846	1.69299	2.45745	0.08106	1.18309	3.99318	1.19755	0.63308	3.12728	0.23173	0.0419	0.335	0.27042	1.51655	0.67084	3.61389	0.53029	1.29116	0.8651	0.13774	3.03781	0.54632	1.06947	0.72618	0.74692	0.88213	0.05649	0.95611	0.19636	4.599	4.22576	2.15255	3.05135	1.43035	0.02743	1.10641	0.73534	51.41973	8.29671
30	60	280.89824	172.92211	590.29088	88.58598	792.97364	195.89997	660.89074	202.10101	193.28688	185.56966	129.67974	45.89258	157.74764	181.107	226.63442	374.15161	265.62344	232.32467	81.81471	318.13842	334.99481	121.82202	210.69114	246.38042	225.01383	264.20703	242.58397	803.83842	475.10572	518.61248	536.33857	218.02452	218.66817	340.19648	110.26678	210.54889	192.8015	290.42358	563.48022	226.14825	403.00241	338.2304	261.6939	176.85267	203.9666	107.27271	183.46399
60	90	6181.99569	5443.55191	7399.28711	6875.6295	5630.84892	5970.55572	5357.31728	5873.224	9220.37247	7559.52459	6947.70866	4706.56794	4546.56614	7715.64632	5956.61855	5522.72741	5419.60138	5200.03223	4329.98358	5874.99988	6942.99654	5011.49188	6365.65163	5184.24715	5791.61316	7086.13627	5535.35462	6223.24097	6444.43259	6054.06981	6253.97482	7138.92881	6950.71312	7560.05712	5445.31699	7211.41187	5700.77276	7202.40038	5823.59342	5453.76257	5288.54116	4905.54277	5326.12472	5423.15154	6290.97057	6207.63013	6258.52036
90	120	15093.13281	14072.87901	17748.12876	17087.72347	17710.8358	14165.95624	17074.44716	14063.11426	18862.24767	17829.14122	16775.51361	11175.93597	13236.59522	18395.70438	13591.65561	15338.21233	14319.31506	14273.48727	11532.60352	15374.78597	17008.7287	12058.77966	15065.93734	15756.46305	14342.70642	19679.29072	18998.77773	17815.28698	14756.49197	18221.76073	14800.91839	19424.8173	18417.59679	16622.22118	12728.24648	15593.71436	18089.24214	19783.55939	13771.94925	15274.01873	15809.78423	13574.82258	14265.13574	15353.10077	16681.01715	10202.17578	14777.57043
120	150	29374.49054	27953.43087	32862.23428	29306.38679	25687.76805	26235.71943	24422.67379	22611.94043	35400.59578	33335.65811	32901.91236	23741.28962	25115.74442	30890.77055	26145.67779	26017.12505	26373.04106	23648.7607	23203.8689	27685.41575	28256.57001	18911.23975	24877.16681	30172.42342	24926.59066	36121.80349	31020.64336	29327.26589	26652.14537	29385.28593	25583.78711	33778.82489	33046.3349	29902.55106	25215.33516	31448.03418	28115.94943	35237.37812	25731.55232	26371.40777	26624.21693	23184.60609	21867.28041	27120.30585	29705.33239	23747.02832	27911.08936
150	180	32508.31772	32116.13514	36939.44111	36467.67982	29331.30967	29950.90355	30866.90725	27465.33252	41005.80992	40346.09526	34503.86799	28699.01562	28399.58374	44003.77631	31887.35982	32775.40827	32775.35089	26774.3642	29188.39868	30868.5771	33640.01762	28053.86523	32360.41755	33523.84692	32170.26884	41300.96815	40723.41808	32174.34615	34045.8648	33512.23445	32476.73019	42400.25194	40650.6549	39391.97888	29963.30117	36648.89258	41691.39374	37418.71471	33837.94754	34933.81193	31894.86782	30242.98013	30945.67606	34027.14907	37639.51101	25928.61816	32707.51712
180	240	39694.87868	37465.48608	43175.38506	42455.17764	36860.3486	32896.8159	37331.06152	29872.62109	47161.35789	42981.28043	38979.61406	30667.73689	32521.00124	45585.10914	36489.77518	34441.12509	34135.97478	33021.63098	31877.10425	38989.05628	39928.77037	27693.74268	35638.09141	37104.28366	35802.6566	45343.79117	44003.18085	37924.38503	35231.16608	38176.35307	32431.44559	48116.97571	43727.51497	42770.76231	28997.36719	44262.19531	35196.75572	45001.29072	35224.99653	35115.40481	33786.0439	31312.41564	32300.73884	36312.13706	41276.1127	25646.68945	36931.55975
240	300	36361.2059	40255.83405	39710.81846	45010.82336	32870.82779	33593.16371	37495.16854	30091.9917	47217.31996	43300.52582	37276.87513	36417.90792	34172.41215	49028.16224	36621.42219	37667.82911	34272.16969	33293.19558	36469.55566	38303.84481	40114.14607	25333.92822	38515.43248	37105.43857	37494.88262	44037.85006	45858.00583	37049.70401	34700.9932	39965.55962	31125.9255	47224.55733	43939.58257	37961.5824	30165.26328	45061.27734	41120.22926	48124.80446	36369.71117	38683.17648	35481.82947	34374.4908	34347.95647	40434.25748	42236.91031	28695.52051	38556.28524
300	360	38176.26908	39057.90343	42947.15449	44545.71721	35822.7174	33471.85108	36914.81823	27922.6792	46179.3633	41566.34692	38662.57344	32927.10826	35959.13225	46078.34978	35210.10053	36426.91087	34277.09369	32626.96474	34357.18042	38898.15389	40070.71012	28509.14258	36295.63719	33802.99046	40473.12109	45201.45312	45352.42406	38717.2255	30547.7343	41247.09499	31176.2832	47296.59281	42778.98001	36567.17206	33311.22617	47634.07031	40078.14727	50145.97685	33671.24939	39699.30123	35276.5041	33957.63961	39966.63895	37144.36118	43041.84149	28624.72656	39493.40842
360	480	35114.66313	36173.37441	39369.92441	39312.77771	31642.22905	31888.63635	33584.27795	26874.0376	43926.3452	40157.78775	35836.33023	30634.91574	32818.54898	41810.29917	33098.22291	33941.35336	31855.96672	31887.01321	31719.31934	36954.74156	37187.53923	27245.61084	33881.84776	33166.64851	35371.11917	43731.63972	43061.34162	34671.67045	33474.58207	36684.35155	29318.80441	46780.18391	41626.09068	37203.96718	29719.49414	44821.60938	36381.17448	45196.23764	33804.8896	35663.31948	33252.06647	31724.22414	33583.2168	38011.08599	41159.1552	27428.19238	36134.59427
480	600	33491.63189	33810.45009	37850.01943	36481.90021	31766.04061	28487.82781	31178.69585	26681.83203	40817.30863	36326.12564	32553.80787	29796.56055	30059.01634	38848.24373	30258.49094	31414.56634	29566.79871	28244.86906	30708.20898	33689.93865	35188.86211	25811.3418	32150.79091	32413.11526	34134.10938	37389.33248	39204.40743	30225.0981	28633.49254	31296.40056	26481.14565	39808.77259	36133.78688	33217.72975	27977.47734	42358.04883	36023.80352	38841.61429	30750.51646	30937.47808	29270.84865	30244.67087	31604.57227	34104.57288	36240.4435	26859.01465	32457.928
600	900	27864.48383	29518.59167	29517.05586	32175.69829	25091.4181	25313.22887	25476.77499	23089.35791	32733.9073	29737.27024	28048.75911	26812.10212	27279.90689	31880.39478	27402.48894	27487.58623	24657.58948	26875.78481	28533.00562	29363.76361	29563.91438	23472.38281	27733.53812	26723.56962	28785.72527	30872.56415	34464.34646	25683.71005	25659.76663	26941.36599	23799.21401	33274.08732	30041.38736	27774.74585	26367.97656	33073.08789	29910.55999	33487.95324	28626.87097	27260.84615	26423.08508	27219.44696	28665.09542	29980.37202	31112.85693	23881.47949	28542.75769
900	1200	21889.21906	24665.72281	21980.21992	25431.6274	18576.57826	21452.40339	19183.54624	18347.5957	25629.61106	23219.96468	22848.71928	20802.5332	21330.99234	25182.12691	22260.01757	21635.03828	20118.78715	22463.19114	23023.37842	25219.819	24042.23572	20327.60205	23548.25515	21852.52756	23828.29376	23888.97191	26303.11372	20230.41087	21847.19921	20875.13536	16623.0106	25843.20677	23626.38625	21663.06884	20738.35938	27009.03125	23673.38351	25145.72198	22066.04585	22633.98641	19734.49692	22264.75036	22730.94029	23903.39813	24792.4926	21175.51758	24018.91005
1200	1500	18883.67141	19888.63411	19096.76963	20111.43762	16898.58927	18785.03765	16740.86968	16417.87061	20983.4826	18685.13498	18682.29948	18715.78153	18111.89893	19511.26926	18723.72018	18983.79398	16691.91671	19915.76356	19487.33325	20600.45449	19729.68228	17741.7439	19158.74967	18610.59216	19404.17036	19430.0924	21146.0043	17020.10094	19010.27336	17515.8739	14070.68945	19267.7452	17900.24719	18412.44036	18144.94492	19735.80273	18643.37247	20854.29094	18453.0536	19755.2996	17382.77571	19410.69501	19955.22824	20392.02217	20675.70723	18645.4043	20838.05307
1500	1800	17080.41094	16556.78599	15711.40254	17492.60881	13334.16376	17195.0995	12753.72403	14252.88672	16827.19958	15090.58895	16738.41434	15388.71247	15157.87898	16524.89517	16646.43815	16038.00646	14445.66205	17053.69007	16626.1449	18322.6953	17141.78807	16292.3291	17331.8979	15599.73577	16034.2076	16505.42037	18163.09663	13073.7286	16653.20864	13942.29182	13247.74079	18013.27368	15806.28427	16607.91403	14708.7334	17106.47168	16508.81143	16771.9345	16339.95809	15990.74193	14154.39971	17049.852	16072.64286	17773.63037	17503.15659	17069.04639	16842.68387
1800	2100	14615.63504	14420.91313	13644.33452	14862.41303	12136.67932	15296.73442	13372.28357	13150.86011	15084.26429	13708.53809	14680.15874	12687.46596	13494.99333	14283.44954	13355.41107	14766.34839	12266.13201	15713.95015	13657.92285	15884.52464	14897.4017	14225.65601	15338.48268	13991.57649	13986.59419	14604.92653	14985.53602	13828.7282	15214.73209	12450.51447	10282.38072	14499.21177	13487.77012	13614.88009	12867.3832	15081.23633	13805.07706	12963.70177	13538.40453	13854.39053	12130.07903	14371.29908	13829.03725	15323.2308	15256.58336	15116.19824	14842.50464
2100	2400	12016.58327	13923.55996	10687.51357	12277.32757	10202.44531	13596.88654	10314.37641	11570.27979	11568.12123	10964.58922	12753.9309	13375.27651	12257.31759	11470.2647	12485.38129	12644.55848	10749.87632	13249.48487	14266.43604	12921.73861	12239.41741	14307.68835	13457.84121	12040.75815	12110.33126	11259.71965	12925.04068	9406.06152	13456.6607	9588.78046	8310.16902	11293.48089	10780.33767	13248.21435	10872.29707	11951.40137	11098.58126	11150.20922	11556.99241	12834.25476	10404.22884	12949.94	11976.31124	12782.76297	12410.36827	13399.11084	13268.27934
2400	2700	9794.9141	10871.9167	9758.4937	10926.56957	9210.52074	12120.52686	9860.13763	10034.05542	10511.67688	9764.89186	11672.96924	10387.22586	11535.91361	9918.54452	11146.67154	10076.43148	9653.0888	11348.87361	11950.31201	11258.87722	11281.52353	12678.67407	11368.06831	9519.91903	9916.06222	9651.11952	10586.9785	8637.51376	11973.24142	8738.56219	8817.69901	10667.34891	9514.04366	11380.2109	9182.59414	10728.59766	9049.03554	9810.45808	10937.31813	10036.39388	10033.42542	10862.98939	10376.41071	12174.55264	11497.20389	13403.03564	11384.26568
2700	3000	9937.09263	10231.26979	9110.64092	11152.49333	8634.17837	10978.60295	8986.34758	10141.07727	9990.59962	9073.02325	10629.01075	9496.72112	10537.18671	8568.23807	8826.34949	10549.73334	8359.58997	11241.75992	11327.42468	10622.72914	10624.77671	11500.18311	11172.18481	8738.69339	9354.45662	8503.8048	9049.98518	8847.55187	11095.65806	9033.80523	7404.82171	8281.87812	8157.45008	9760.54925	8888.70059	9212.25244	7775.73132	9630.6847	9424.94795	10905.50824	8943.47244	10013.83398	9734.6416	9948.85699	9896.35826	12262.36035	11080.90801
3000	3300	8393.16201	9400.02914	9554.01599	9461.19571	9771.73789	10353.85227	7837.13893	7481.46899	8593.63263	8066.01403	8508.12549	9112.14076	9444.12123	8804.71948	8165.34548	9247.297	8106.36915	9582.83111	9349.28186	9702.5016	9299.83179	11727.7395	10500.62362	8178.95771	8169.17738	8277.70613	8849.85907	8641.46396	10475.16877	8361.51762	5658.509	7495.91173	7476.65322	8073.27134	7272.73516	8024.44971	8545.91054	8366.52335	8912.4522	8838.84286	8060.42223	9560.44122	8097.17013	9299.20146	8799.64333	11026.59033	9880.13818
3300	3600	8520.78263	8332.18249	8757.29707	7732.53222	8573.45759	9463.00822	7177.78502	7749.95984	8196.42075	7444.19237	7689.92046	7474.17139	8176.33957	7813.71016	8569.41008	8562.30488	7180.05547	9226.10391	8504.43079	9511.99816	8815.21297	10259.26404	8753.48092	7387.51505	7968.73611	7149.95688	7735.78561	7471.60216	9685.92475	7159.4672	6131.67983	6876.26585	6462.2818	7690.15954	7348.84961	7340.82275	6604.32057	7521.62891	7241.80885	8350.53117	6747.23136	9377.85156	8355.08831	8801.37463	8580.79275	10692.22314	9798.79905
3600	3900	7995.37663	8434.90633	6396.31475	7729.52471	5699.07819	8060.8178	6241.93426	8570.7594	7530.5096	6579.88857	7643.38594	7837.79074	7679.28945	6382.19563	7341.33947	8189.45149	7260.43667	9280.01117	9434.11603	8595.98364	8633.04218	10767.65869	8639.3657	7741.9408	7543.24016	7049.93896	8309.54085	6518.10272	9458.82814	6637.61603	4677.35917	7379.30129	6972.52355	7285.16338	8223.89893	7644.89844	6862.03948	7261.75774	6968.9881	8601.54645	6537.24801	8006.98179	8057.87807	8099.38236	8089.01913	9781.40479	9658.90579
3900	4200	7401.71845	7104.42103	6828.17734	6188.87297	6840.81748	8948.06447	6291.18775	6795.42712	6784.52086	6390.42539	7048.43729	7972.29297	6541.33117	7224.47446	7850.41792	7069.42881	6955.57923	8214.07896	7379.914	7495.39356	7044.46227	7889.40302	8122.06722	7874.51428	6683.10042	6345.55747	6115.15201	4649.28396	7936.31355	5391.11897	6009.04562	6453.69911	6198.89854	5937.66026	6323.96299	6848.6853	6875.66277	6596.98022	6455.25922	8216.86702	7143.99663	8740.46171	6908.72161	9181.029	7843.99406	10361.81787	8255.78477
4200	4500	7608.63612	6187.52496	7091.00955	7029.08253	6264.18917	7794.74311	6447.38051	7313.30188	6819.58027	6690.09083	6466.12819	6101.9006	7125.78713	6527.45672	6829.50569	9089.60856	7159.49075	8204.56199	6780.95801	8236.17276	7433.76193	8901.64569	7299.48171	8288.43334	6531.73245	8268.75184	7975.89141	7551.27193	8447.78184	7072.87209	4774.93359	6928.62696	6939.99115	6173.84765	7080.06982	6100.896	7245.9368	6250.06789	7123.58259	8335.13275	6506.28624	8415.14822	6866.08956	7959.52633	7347.73592	7939.03833	6859.55739
4500	4800	6737.5386	6798.43247	5947.25474	6140.25981	6189.22027	8928.07388	7033.03969	6790.78162	6507.6765	6406.52153	7156.82489	6086.24679	6377.46413	6585.16653	7449.30963	7545.13744	6043.15086	6193.95156	6688.42639	6652.09334	7245.912	8289.9549	7746.28506	7741.33366	7978.55518	5445.49846	6760.9531	5114.64291	7807.64401	4646.06091	2780.29527	6925.10479	6323.6164	5706.26151	6808.98955	7514.36499	5834.74699	6328.10806	4934.78271	6537.18783	5616.14615	8902.20551	7819.21882	8542.96704	7393.85812	8850.87769	7560.69639
4800	5100	5475.72615	7639.66978	4745.63652	6373.73766	5192.51217	7600.31659	5406.19952	6809.20032	6612.58124	5967.08073	6643.43046	7422.29667	7922.29515	4957.34127	5622.64224	6772.19576	6575.94793	6459.20219	9254.61304	6916.02593	7079.95734	8564.70117	6252.94547	5868.27235	7198.21689	5658.19982	6742.57676	5072.60651	7496.57157	5386.56871	4239.57847	6644.04289	5736.90884	6209.06428	5908.02979	7810.62842	5324.08165	5796.67997	6855.23304	6344.36202	5732.81748	7444.94938	7415.58601	7481.25986	8148.51226	8346.43066	7799.56838
5100	5400	6974.5097	6146.91828	5873.08142	7308.60362	4962.30366	7574.01393	5656.07466	4864.44019	6257.85651	6219.85572	6150.40141	5997.2177	8076.61821	6059.91736	5688.75637	6231.1758	5650.38197	5241.8422	5845.37671	6131.54907	7125.43652	9525.22961	6753.6066	6372.85308	5790.49646	6989.85652	4907.72325	8033.24452	6968.39415	7917.42545	3131.40946	6179.61015	5764.98602	4344.95152	6419.79219	8786.54004	4539.48226	6004.60999	6349.05066	7811.97927	6298.63283	5454.18281	5107.29402	7836.23846	7734.77069	8875.38721	8029.22292
5400	5700	5796.85887	7062.62467	5459.13208	5221.41369	5009.43696	6006.10785	5494.79194	5959.48242	6614.24011	5687.42366	4979.06334	5692.10944	6138.52588	5593.26328	6946.19486	7148.6141	6559.78271	6083.91699	6132.57593	7874.57141	7136.09818	9401.30847	7919.68922	5265.33925	7283.95248	4608.26142	5018.84065	5217.58396	7518.92402	4610.70731	3934.14927	4814.253	5064.21806	5235.9463	6090.6292	7622.01953	4905.57015	5566.08816	4630.67427	7072.50581	5651.57997	5797.44996	7027.36391	7043.5402	6105.81578	7685.42358	5537.90786
5700	6000	7754.5484	5998.8058	7512.35916	5610.65667	6223.64238	6864.50256	4549.70888	4916.5788	6556.39111	5866.59172	4767.73923	4944.11237	5232.57598	5140.37354	5822.0748	6487.93647	5807.05194	5929.46777	4654.49524	7326.02074	6607.1185	6948.41736	6464.78477	5062.9197	5487.56885	6755.92443	6594.20003	6473.04312	6018.84847	7205.03489	3994.8193	7015.99207	5829.3447	5713.06718	5458.14551	6115.87549	4942.6879	6421.817	5318.00062	5115.39722	5270.0148	5545.62912	5310.5798	5535.81945	7356.82096	5862.1001	6031.74075
6000	6300	5559.65077	6643.14446	5129.55358	5090.28937	5331.47502	6095.2525	6067.25809	3775.50995	5179.45354	5599.39604	5409.63901	7208.03564	5359.79333	5070.90241	6209.10819	4942.52768	5098.33294	6252.61992	6400.50903	5516.97921	5841.30641	7077.4826	5571.63996	5415.78997	5504.19747	5150.76437	6646.23242	4240.05873	5668.52531	5974.58064	5198.49923	5484.23758	5533.33235	5677.6883	4413.54253	4499.89722	7232.06069	5260.06941	7292.17598	5807.89234	5439.09889	5364.84887	5462.40011	5135.05938	5997.08069	6806.06641	5656.53498
6300	6600	5437.80067	5458.93251	4614.97522	5986.58689	3388.90841	7713.07572	3869.86691	4030.2406	5271.0002	5769.92392	6301.14875	6553.11775	5612.15302	4954.1489	5941.57973	7082.27002	5422.94653	5800.64485	6926.98499	5553.90998	5740.12047	7626.38837	7253.68851	5036.96987	5110.59503	6237.18138	5834.74184	7999.99172	5956.69654	4908.3964	4516.65381	4929.95931	6197.44774	5870.04411	4247.99448	4536.69434	5369.82414	4563.11495	4162.28808	3741.37313	3741.43686	5736.61998	4442.47001	4808.01697	4834.71245	5239.07056	5030.46113
6600	6900	4542.54818	5156.56982	4815.77186	4730.01225	5870.77197	6839.95627	5319.66529	6428.01849	5564.5695	5242.4764	7646.99852	4894.26113	6556.85574	4177.30253	6795.06846	4867.6023	5044.27804	5877.45976	5577.18433	5005.91521	4948.80749	3965.30753	5055.88992	5627.45873	4820.58122	4325.01432	6881.92976	2426.91012	4444.9524	4649.35226	2793.55242	5487.71702	5550.44732	3471.54456	4675.0167	6783.2146	4554.65358	6481.47042	3568.62032	8300.4284	4626.90062	6250.55873	4941.5203	5472.5092	5546.16539	9313.75293	7601.63298
6900	7200	6218.25267	6108.61808	5686.54846	4851.03547	5736.89282	5529.25416	6316.23254	4153.60162	5466.3903	4611.46034	5702.63856	4048.89844	4737.95602	3883.4156	6387.96642	3809.39269	4658.0463	6832.36575	3938.91708	5709.66502	6029.94609	4965.11725	4779.13167	3807.99751	5286.88329	6167.47296	7589.73657	4131.04824	6485.57765	3635.72691	1291.34031	6268.25212	5403.90883	2993.01967	3983.05835	4087.53674	9085.35354	4358.74162	2738.18019	3845.09915	3410.97263	5641.36291	5787.47614	4050.92372	4991.10048	4197.92871	6010.08835
