frame_start	frame_end	Left-Cerebral-White-Matter	Left-Cerebellum-White-Matter	Left-Cerebellum-Cortex	Left-Thalamus	Left-Caudate	Left-Putamen	Left-Pallidum	Brain-Stem	Left-Hippocampus	Left-Amygdala	CSF	Left-Accumbens-area	Left-VentralDC	Left-choroid-plexus	Right-Cerebral-White-Matter	Right-Cerebellum-White-Matter	Right-Cerebellum-Cortex	Right-Thalamus	Right-Caudate	Right-Putamen	Right-Pallidum	Right-Hippocampus	Right-Amygdala	Right-Accumbens-area	Right-VentralDC	Right-choroid-plexus	AirCavity	Skull	Vermis	Pons	CSF-ExtraCerebral	Head-ExtraCerebral	ctx-lh-bankssts	ctx-lh-caudalanteriorcingulate	ctx-lh-caudalmiddlefrontal	ctx-lh-cuneus	ctx-lh-entorhinal	ctx-lh-fusiform	ctx-lh-inferiorparietal	ctx-lh-inferiortemporal	ctx-lh-isthmuscingulate	ctx-lh-lateraloccipital	ctx-lh-lateralorbitofrontal	ctx-lh-lingual	ctx-lh-medialorbitofrontal	ctx-lh-middletemporal	ctx-lh-parahippocampal	ctx-lh-paracentral	ctx-lh-parsopercularis	ctx-lh-parsorbitalis	ctx-lh-parstriangularis	ctx-lh-pericalcarine	ctx-lh-postcentral	ctx-lh-posteriorcingulate	ctx-lh-precentral	ctx-lh-precuneus	ctx-lh-rostralanteriorcingulate	ctx-lh-rostralmiddlefrontal	ctx-lh-superiorfrontal	ctx-lh-superiorparietal	ctx-lh-superiortemporal	ctx-lh-supramarginal	ctx-lh-frontalpole	ctx-lh-temporalpole	ctx-lh-transversetemporal	ctx-lh-insula	ctx-rh-bankssts	ctx-rh-caudalanteriorcingulate	ctx-rh-caudalmiddlefrontal	ctx-rh-cuneus	ctx-rh-entorhinal	ctx-rh-fusiform	ctx-rh-inferiorparietal	ctx-rh-inferiortemporal	ctx-rh-isthmuscingulate	ctx-rh-lateraloccipital	ctx-rh-lateralorbitofrontal	ctx-rh-lingual	ctx-rh-medialorbitofrontal	ctx-rh-middletemporal	ctx-rh-parahippocampal	ctx-rh-paracentral	ctx-rh-parsopercularis	ctx-rh-parsorbitalis	ctx-rh-parstriangularis	ctx-rh-pericalcarine	ctx-rh-postcentral	ctx-rh-posteriorcingulate	ctx-rh-precentral	ctx-rh-precuneus	ctx-rh-rostralanteriorcingulate	ctx-rh-rostralmiddlefrontal	ctx-rh-superiorfrontal	ctx-rh-superiorparietal	ctx-rh-superiortemporal	ctx-rh-supramarginal	ctx-rh-frontalpole	ctx-rh-temporalpole	ctx-rh-transversetemporal	ctx-rh-insula
0	30	934.8356323242188	797.8301391601562	1266.7274169921875	1722.2559814453125	1278.46875	1762.738525390625	1134.6011962890625	1402.0631103515625	1946.2569580078125	2084.552490234375	635.8627319335938	2311.191162109375	1492.73681640625	1997.074462890625	915.5645751953125	817.1786499023438	1034.24609375	1649.6390380859375	1269.04150390625	1885.98388671875	1689.1363525390625	1445.6461181640625	1843.4710693359375	3269.61181640625	1339.462646484375	1456.40576171875	214.2828369140625	644.6563110351562	1280.6593017578125	923.4441528320312	1909.1439208984375	310.7105407714844	1788.60986328125	2463.251708984375	1705.665771484375	2099.188720703125	2251.5771484375	1583.1588134765625	1977.6837158203125	1306.1214599609375	2511.291748046875	1719.0782470703125	1580.0	1838.353271484375	2217.161376953125	1412.93212890625	1482.0594482421875	1191.134033203125	2487.70166015625	1588.5880126953125	2258.54541015625	2747.98095703125	2182.25732421875	2072.485595703125	1570.3978271484375	1971.50244140625	2859.104248046875	1916.546875	1843.9774169921875	1521.5179443359375	1942.448974609375	2382.788330078125	1638.001708984375	1238.3955078125	3408.125732421875	2565.352783203125	2093.77783203125	2116.173583984375	1710.136474609375	2157.365234375	1747.7869873046875	1255.7021484375	1613.49853515625	1326.530029296875	2356.050048828125	1248.48681640625	2164.49169921875	1603.5797119140625	1990.6607666015625	1269.904052734375	1762.600341796875	1620.24169921875	2798.751220703125	1181.770263671875	1782.860595703125	2252.289306640625	1941.700439453125	2574.72216796875	1474.0009765625	2026.6490478515625	2645.87890625	1653.5406494140625	1837.411376953125	1445.771240234375	1789.8173828125	2232.7841796875	1750.6949462890625	1099.9501953125	3313.728515625	2512.701416015625
30	60	8754.392578125	9968.1806640625	13005.7109375	15395.8701171875	13405.751953125	18848.615234375	9943.7568359375	9845.93359375	13163.0087890625	10543.4951171875	6305.828125	15719.515625	11636.04296875	14811.8134765625	8712.4033203125	9349.3671875	12470.3896484375	15431.6591796875	14224.3125	17258.96484375	10383.3095703125	12784.9140625	10216.8271484375	13205.576171875	12955.34375	13672.931640625	2118.901611328125	4673.96875	12202.974609375	10600.3369140625	14281.259765625	2541.31982421875	17191.9609375	14685.384765625	17971.84375	21353.60546875	15411.1298828125	13750.974609375	17674.876953125	14095.013671875	19497.51953125	18516.3515625	14751.8876953125	19770.76171875	17097.43359375	14828.8291015625	10058.84765625	15893.142578125	19001.017578125	14127.4443359375	18941.884765625	26237.451171875	19650.80859375	17846.392578125	16274.34765625	18980.923828125	18571.5390625	19954.6171875	16917.259765625	15838.4912109375	16142.521484375	19152.2890625	17115.115234375	11932.708984375	23976.09765625	16191.14453125	15463.578125	13119.5087890625	17258.703125	21204.66015625	13682.5185546875	13766.7841796875	16132.3193359375	12084.435546875	19020.083984375	17294.380859375	16676.09765625	19095.4140625	17229.14453125	13521.15625	10698.259765625	14672.037109375	18404.404296875	10706.3251953125	17513.3359375	24007.962890625	17192.478515625	19532.869140625	15624.15625	19740.4375	13507.5830078125	17482.4375	16525.365234375	14994.7001953125	14129.2568359375	16678.65234375	17827.966796875	10201.38671875	23577.56640625	15738.7578125
60	90	19421.099609375	21872.220703125	29792.9765625	33211.09765625	31232.181640625	37983.8359375	24114.16015625	20245.544921875	29455.755859375	23890.982421875	13432.228515625	32262.083984375	25824.806640625	37087.02734375	19336.36328125	20757.259765625	28941.0625	34698.8359375	31542.068359375	36579.48046875	28230.044921875	26393.18359375	23774.76953125	27988.8984375	25341.716796875	29507.73828125	4788.72216796875	9753.66015625	29957.84765625	24088.259765625	28699.490234375	5401.57958984375	36019.8046875	26741.021484375	39343.859375	49930.0703125	28461.75390625	29752.5	39920.359375	30679.09765625	39351.765625	41211.703125	32252.775390625	41477.3984375	34642.6328125	33228.984375	22998.833984375	38421.32421875	40406.70703125	31668.30078125	41124.484375	54827.7734375	45508.0078125	37300.59375	37994.48046875	43043.75390625	38788.609375	43100.1796875	37541.08984375	38075.32421875	33842.95703125	41853.09765625	36789.8046875	24178.306640625	48593.109375	31780.451171875	33933.11328125	24475.193359375	39733.0078125	47636.58203125	26747.326171875	30559.80078125	36801.7265625	28090.80078125	36938.15234375	39713.80859375	32722.654296875	40268.48828125	34935.03515625	29786.125	23648.26953125	36290.77734375	37006.21875	24755.041015625	38756.44140625	52484.32421875	41535.5	35991.61328125	35086.30078125	43715.5859375	25658.0078125	38966.328125	36259.015625	35654.91796875	31451.10546875	37904.078125	37099.01953125	24418.736328125	45935.73828125	31413.154296875
90	120	30789.845703125	34218.546875	47329.74609375	53579.08984375	48797.7578125	61894.0703125	37502.65234375	31162.0390625	42729.265625	34893.328125	19892.892578125	52132.59765625	39420.61328125	43929.390625	30401.61328125	32683.0625	46222.9140625	53965.1484375	51008.16015625	60377.671875	40645.4921875	42620.37890625	32635.529296875	45518.80859375	39466.65234375	41616.30859375	7206.76513671875	14289.783203125	48241.98046875	37543.5625	42618.62890625	8034.7685546875	55207.953125	41701.3203125	65468.203125	75335.953125	37483.85546875	47771.29296875	62628.171875	48364.26171875	59287.6015625	64983.26953125	51791.16015625	64534.13671875	55633.375	53812.0625	33473.9453125	60184.1796875	62130.41796875	47332.3359375	69685.921875	85892.53125	72231.0234375	58164.78125	60200.7265625	68374.5078125	52599.90625	69367.5234375	59516.44921875	63472.65625	52602.12890625	63925.29296875	58755.140625	35545.296875	74688.8359375	49349.28515625	53927.5546875	35673.86328125	62568.8046875	72536.734375	39497.2890625	47910.80078125	58504.7265625	45338.046875	56757.48828125	62154.609375	49534.34765625	64152.09375	53684.171875	47488.55078125	34997.78515625	57154.203125	59453.43359375	43064.95703125	59664.140625	80688.21875	64458.0546875	61488.08203125	56057.46484375	66879.03125	40014.15234375	62068.53515625	57853.5859375	57106.25390625	48479.3984375	58795.1171875	62334.63671875	36150.91015625	72031.1953125	46040.66796875
120	150	34862.5	39475.69140625	55369.4140625	60248.93359375	55818.60546875	68474.0703125	42708.70703125	35268.0	46392.34375	40219.875	22574.529296875	53102.1875	43259.43359375	47037.0546875	34367.7265625	37990.4609375	53983.8125	61088.2890625	57447.6328125	67812.2421875	46542.5390625	45273.51171875	42878.1171875	50698.86328125	42420.734375	41792.37109375	7936.5751953125	15372.99609375	57596.96875	43096.8828125	44369.578125	9060.705078125	64904.7109375	44281.48046875	75745.375	85629.171875	40812.296875	51865.9296875	72690.9609375	55851.0	62242.63671875	75788.8125	55546.3203125	73997.53125	60590.390625	61043.3671875	36940.0703125	67836.2734375	67831.1640625	51336.703125	78208.2109375	98070.7734375	82850.203125	61076.93359375	69075.6015625	78545.53125	58499.546875	79231.125	68836.3515625	71082.8671875	58301.0703125	75386.3359375	68815.2890625	41583.12109375	76673.96875	50018.13671875	63474.203125	37730.03515625	75182.4453125	82013.7109375	39563.359375	54837.703125	68149.4375	50626.39453125	61971.44921875	72400.7265625	53861.515625	71653.3125	60095.2265625	56294.4921875	38033.03125	64912.75	62690.5546875	47214.40234375	68156.3984375	90221.6796875	72641.703125	68508.640625	63980.1171875	75931.0703125	39960.06640625	71763.625	66014.3125	66235.703125	54574.42578125	64784.21484375	73352.8671875	44081.36328125	72634.328125	48451.125
150	180	34685.515625	37562.80078125	55032.0234375	60920.00390625	53628.16015625	69089.4609375	42254.2421875	35411.0078125	44055.81640625	36735.63671875	21061.064453125	55254.25390625	42968.38671875	44576.90625	34368.5703125	37209.2421875	54466.94921875	60889.375	55309.8828125	68080.0859375	49749.99609375	44566.8046875	39448.05859375	53057.48828125	43463.0703125	39571.16015625	7781.94775390625	15104.5302734375	59866.69921875	42339.8515625	41676.7890625	9001.1875	65562.0703125	47033.0234375	75612.484375	83694.4296875	36901.93359375	53018.078125	72010.8671875	55218.65625	56773.4296875	73660.859375	57048.890625	69898.3671875	61798.55078125	61744.37890625	35151.87109375	63582.77734375	66755.6640625	56857.8671875	77111.46875	95888.4296875	81692.421875	64816.55078125	67023.015625	75981.8515625	60409.7578125	77258.0703125	67269.234375	72206.1171875	58922.8203125	72656.1484375	66800.109375	39508.4609375	78304.1484375	48809.2734375	61990.71875	40846.07421875	72531.484375	79674.9453125	38038.12109375	55434.109375	66998.8125	49078.73046875	61529.25390625	72137.0	50739.23828125	71126.3359375	59491.03125	55615.71875	36473.4296875	66448.5859375	63829.76953125	46864.25	66102.3671875	89472.0703125	70901.1015625	70474.9765625	64004.13671875	75878.0078125	38535.0078125	71457.3125	64988.28125	67070.53125	53685.17578125	64108.140625	69119.5703125	43195.72265625	73398.6484375	48985.734375
180	240	33700.1015625	38094.74609375	53862.08203125	59529.265625	51983.9140625	67581.34375	43659.4921875	34062.29296875	43959.69921875	39583.07421875	18638.837890625	51361.109375	41346.0703125	35425.77734375	33505.5625	36824.20703125	52181.31640625	58630.125	54396.0625	64006.15234375	48497.1015625	43757.02734375	40470.16015625	55050.15234375	40760.41015625	33486.33203125	7447.8857421875	14772.61328125	53865.03515625	41672.328125	39173.21875	8978.7158203125	61102.55078125	44824.7265625	71458.9609375	77048.9296875	33941.66796875	51138.0546875	67216.2734375	52401.6171875	58791.53515625	69436.3359375	52651.078125	67964.0546875	57709.3984375	59340.703125	37233.16015625	60912.484375	63685.578125	50309.37109375	72214.6484375	86506.421875	74591.4453125	60405.5625	64819.203125	69423.3515625	55490.81640625	74126.3359375	63336.859375	66091.2578125	56968.24609375	69633.6640625	64152.11328125	37586.26171875	69004.359375	48053.03125	59842.05078125	34236.55078125	69035.7734375	74443.1953125	37441.82421875	52027.8203125	64352.1171875	48721.2890625	57689.84375	66752.6640625	49857.83203125	65452.765625	57256.140625	53535.48046875	36316.234375	62628.94140625	58932.84765625	43970.37109375	62810.41015625	80343.3125	67220.859375	68011.390625	60726.26171875	69057.921875	39453.33203125	66986.3828125	61039.37109375	64140.48046875	51241.88671875	62540.94140625	63980.83984375	42309.765625	67152.6796875	47525.25
240	300	31986.29296875	35704.8046875	50303.375	55931.9765625	48232.75390625	62006.0390625	41124.74609375	32917.375	40518.55859375	41058.921875	16454.4765625	48349.265625	40438.671875	28665.76953125	31526.638671875	35209.12890625	49031.94921875	55836.88671875	49649.09375	60446.25	42351.6796875	41524.828125	39641.328125	52253.30859375	40538.671875	28270.92578125	6990.5302734375	14180.5869140625	46989.18359375	40745.99609375	35009.41015625	8984.0302734375	58910.8984375	42782.046875	63784.20703125	70275.625	33458.62890625	49076.1328125	60876.05078125	51485.81640625	51530.5703125	63971.38671875	50178.65625	62822.98046875	54323.44921875	55901.140625	35278.97265625	55936.45703125	58394.25	46752.77734375	65630.6171875	77692.8359375	67428.8984375	56204.01171875	59194.33984375	63268.625	50606.8125	67962.140625	58281.875	61272.3671875	53211.640625	63060.62109375	58499.7578125	41831.07421875	68552.9765625	45759.1875	52860.3203125	39629.15625	61216.51171875	68211.2734375	36821.73046875	48645.171875	58970.890625	45766.5625	53391.78125	60944.09765625	45502.875	61837.6328125	53969.1953125	50823.37890625	35614.1328125	55796.13671875	54812.296875	40338.75390625	57097.12890625	72116.640625	60092.0625	58569.47265625	53995.26953125	63174.20703125	41363.40625	61504.5625	56492.953125	57055.5546875	49101.3203125	55681.796875	61594.44921875	40650.89453125	57641.33203125	43299.26171875
300	360	30226.42578125	33835.51171875	47004.80078125	51662.9609375	45443.55859375	58211.828125	40538.33984375	31033.478515625	37947.21875	37318.31640625	13651.6513671875	45053.1796875	40043.49609375	19512.392578125	29665.9375	33501.88671875	45617.35546875	52096.3671875	45671.41015625	56192.91796875	44031.14453125	36249.1953125	39305.796875	51628.109375	39760.90234375	20356.640625	6974.763671875	13665.06640625	41843.21484375	38790.93359375	31461.884765625	8918.5947265625	52568.0078125	40800.30078125	58723.82421875	61544.65234375	34644.94921875	46072.8203125	54519.94921875	48382.45703125	46687.984375	57296.0078125	45438.953125	56664.5	48936.14453125	51533.60546875	33855.41015625	53446.7578125	52950.65234375	44966.453125	59513.1796875	67211.9765625	58803.91015625	54445.25	52753.43359375	57241.734375	45953.5859375	61125.12109375	52945.82421875	54583.49609375	48992.06640625	57170.703125	59316.32421875	39548.93359375	58326.8671875	43414.890625	46486.15234375	39168.88671875	57149.14453125	58492.71875	32577.05078125	45582.12109375	52314.171875	44624.11328125	51217.8671875	55590.18359375	43493.765625	54796.68359375	49295.5625	47550.2421875	32817.50390625	49726.8671875	50364.24609375	40099.06640625	53039.109375	62613.51171875	53038.91015625	55828.484375	49871.62109375	56985.63671875	40337.04296875	56715.55859375	51481.09375	51200.34765625	44687.30078125	50216.796875	60521.48828125	37802.6640625	54425.06640625	42418.30859375
360	480	28307.79296875	31856.65234375	41605.51171875	45836.87109375	37589.7109375	51505.47265625	37918.125	29077.607421875	33883.875	35825.55078125	11743.125	48411.74609375	38706.90625	9901.1845703125	27883.37109375	31390.041015625	40734.609375	47022.5703125	36468.03515625	50076.484375	41529.22265625	34948.9609375	35139.046875	46276.73828125	38871.6484375	15192.1220703125	7205.0576171875	13308.6962890625	35972.29296875	35680.28125	26905.609375	8858.4189453125	46463.0390625	39846.390625	49691.203125	50441.609375	33442.19921875	41853.28515625	46484.21875	43789.95703125	42877.390625	47956.796875	43600.96875	48439.90625	45165.3515625	46060.0234375	33282.0703125	43462.7265625	46490.95703125	43364.7734375	51052.5703125	54855.484375	50102.26953125	47412.734375	46489.64453125	48248.7890625	40226.26171875	54101.65625	45092.734375	45119.87890625	43418.48828125	48793.8125	54393.62890625	39332.7890625	55470.37109375	39917.109375	41827.8359375	37445.75390625	47683.99609375	48923.234375	31437.03125	41539.2734375	45963.1328125	40411.90234375	43924.0546875	47234.1875	41598.54296875	47823.421875	44519.23828125	43700.2265625	31756.00390625	43847.0078125	43598.4609375	38776.3671875	45603.65234375	51027.9140625	45252.3359375	48845.08984375	43095.71484375	47813.33984375	35279.06640625	49401.3359375	44810.1796875	42649.87109375	39712.79296875	43513.09375	53795.8046875	36480.21875	45922.96484375	38429.2734375
480	600	26466.041015625	30513.82421875	35720.265625	39449.578125	30000.470703125	43547.8828125	35420.25390625	28103.5390625	30517.103515625	33724.65625	10554.2978515625	39817.27734375	36537.87890625	4103.18212890625	25817.787109375	29823.330078125	35252.46875	40596.5234375	28277.880859375	44452.515625	37214.84375	30855.58984375	33758.62109375	41435.609375	36582.85546875	10646.87109375	7490.54345703125	12966.4248046875	30390.203125	33281.09375	22922.01171875	8748.267578125	40419.67578125	38202.21484375	40064.31640625	39063.81640625	32201.78515625	37523.1796875	38029.1953125	38713.5546875	35902.17578125	38653.03125	39165.3125	40671.74609375	39530.84375	39530.28125	30564.583984375	35176.765625	38727.39453125	38822.56640625	42480.609375	43315.046875	39322.359375	40899.265625	37454.36328125	38773.0859375	35023.3203125	45007.0859375	37393.8984375	35547.44921875	36586.2734375	40253.30078125	47592.296875	34996.26953125	43178.92578125	34221.73046875	35390.015625	34020.80078125	38488.859375	38769.78125	31158.30078125	37013.71875	37751.4453125	35906.87890625	38593.2109375	39243.46875	37050.9375	39222.1875	37117.94140625	37583.83203125	28639.07421875	36278.0390625	37503.1875	35823.18359375	38939.7109375	40945.4921875	36322.70703125	41826.6796875	35757.6875	39047.734375	33953.375	41181.41796875	36765.90625	33084.01171875	33551.43359375	36642.06640625	48652.2109375	34182.9765625	39255.171875	33232.89453125
600	900	24385.681640625	27820.40234375	28609.81640625	31146.859375	21814.47265625	35548.68359375	32312.04296875	24367.501953125	26040.841796875	29416.919921875	10345.84765625	32993.203125	34638.01953125	1419.08740234375	23902.80859375	27811.1484375	28642.84765625	31947.0390625	20502.79296875	34560.46484375	32635.029296875	25525.798828125	30011.609375	32929.3203125	34871.34765625	6984.10205078125	7956.5068359375	13070.765625	22788.533203125	30064.603515625	19748.869140625	8933.044921875	32069.2890625	31310.6796875	29209.541015625	27653.853515625	27052.068359375	30969.505859375	28417.923828125	32598.923828125	29908.470703125	29727.9453125	32509.810546875	31819.0	31735.97265625	32334.49609375	26171.396484375	27175.427734375	31024.7890625	33484.3984375	33338.984375	31583.3125	29511.55078125	32069.44921875	28503.154296875	30156.85546875	28583.58984375	35231.85546875	27278.802734375	25122.357421875	29155.103515625	31304.0625	40701.6640625	27655.220703125	34210.671875	29659.94140625	28702.84375	29502.677734375	29011.490234375	27752.44921875	29228.642578125	29970.6171875	28937.873046875	30295.576171875	30334.27734375	29775.5390625	30989.140625	29854.259765625	30420.779296875	29881.359375	25273.0546875	26266.876953125	28909.8203125	30078.28515625	30281.021484375	30384.873046875	26549.6484375	33278.8203125	27095.341796875	29742.89453125	26434.853515625	32040.580078125	27764.189453125	22778.439453125	26681.638671875	27890.205078125	40540.45703125	29052.98046875	29784.572265625	28586.69140625
900	1200	21820.93359375	23982.6796875	22022.318359375	22739.83984375	15192.7802734375	27258.166015625	26848.861328125	19972.6328125	21288.275390625	26058.638671875	11534.046875	24279.71875	30465.046875	1684.178466796875	21301.892578125	23775.73046875	22041.09375	24173.755859375	14920.912109375	26699.15625	28199.322265625	20816.8984375	24921.078125	23997.033203125	30704.94921875	7124.443359375	7926.4677734375	12913.765625	16530.37109375	26324.3671875	17592.990234375	9103.830078125	24578.037109375	24079.75	20145.78125	19296.62109375	23520.662109375	24449.68359375	22139.53515625	25713.939453125	23191.822265625	22273.17578125	26164.25	23653.158203125	23857.767578125	24490.6328125	21883.23828125	19580.962890625	24301.28125	25461.529296875	25574.490234375	23964.75390625	21511.978515625	23086.52734375	20539.4296875	21828.646484375	21232.96484375	26224.533203125	18992.375	17085.904296875	21476.087890625	24353.34765625	31079.841796875	20749.8046875	25016.4765625	22949.626953125	22780.39453125	21730.35546875	20180.048828125	19998.3125	24579.990234375	23687.60546875	21641.978515625	23799.931640625	23546.349609375	22604.75390625	24601.98046875	23009.41015625	22780.49609375	22638.392578125	21382.5234375	18380.9375	22206.91015625	23991.40625	23451.216796875	22120.6640625	20017.244140625	24719.9765625	19272.54296875	22089.427734375	22345.609375	24066.546875	19153.271484375	15629.3486328125	19714.564453125	21947.890625	31576.619140625	22376.357421875	22519.359375	22532.119140625
1200	1500	19144.142578125	20137.412109375	17630.40234375	17586.93359375	13043.71484375	21588.99609375	23376.572265625	16377.5859375	19582.197265625	21466.796875	12272.251953125	18645.69921875	25835.2265625	3767.341796875	18858.40625	20193.05859375	17596.193359375	18213.3125	11749.71484375	21423.25	24982.1328125	18933.595703125	20618.34375	17789.771484375	26027.19921875	7908.05712890625	7530.1630859375	12438.3671875	13366.1708984375	22711.94140625	16033.8916015625	9062.052734375	20883.431640625	18171.634765625	14962.609375	14168.5830078125	18986.369140625	20171.041015625	18631.232421875	21080.974609375	19314.255859375	18072.591796875	22391.453125	18987.3828125	18647.54296875	19072.38671875	18571.982421875	15069.9140625	19670.578125	20655.37890625	20947.447265625	19837.478515625	16922.23828125	18118.02734375	16165.041015625	17026.962890625	17332.9921875	20685.814453125	13700.0166015625	14106.376953125	16703.810546875	20825.10546875	24686.6484375	15518.7763671875	19093.8984375	19326.013671875	18834.44921875	17528.796875	15618.658203125	15532.3388671875	19955.517578125	19653.978515625	18057.626953125	19981.265625	19591.392578125	18292.33984375	20782.955078125	18269.86328125	17864.65625	17804.80859375	17887.0859375	13432.4765625	17600.4140625	19722.841796875	19879.990234375	17272.080078125	16051.474609375	19534.78125	15339.1201171875	17087.923828125	17861.912109375	19197.6953125	14064.4169921875	12930.0439453125	15299.9365234375	18282.01171875	24600.630859375	16540.41796875	16843.693359375	18039.955078125
1500	1800	16862.5234375	16484.55859375	14571.6357421875	13434.771484375	10646.650390625	17728.9921875	20040.994140625	13275.3818359375	17094.251953125	18916.111328125	12589.2109375	12291.7890625	21382.91015625	4380.82373046875	16574.099609375	16667.44140625	14512.080078125	14546.33203125	10315.8466796875	17572.279296875	20371.58203125	16603.23046875	18153.64453125	12815.93359375	21606.609375	9026.3505859375	7029.341796875	11822.6884765625	10878.6357421875	19629.76953125	14805.4140625	8878.1845703125	17076.03515625	13586.90625	11650.181640625	10945.80859375	15475.283203125	16813.134765625	17364.212890625	18092.111328125	15744.40625	15011.8818359375	19085.21484375	15560.75	15251.7060546875	15445.4150390625	15215.318359375	11855.8828125	16630.03515625	17819.947265625	17566.009765625	17319.876953125	14974.943359375	14503.2138671875	13748.50390625	13334.970703125	14279.55078125	17276.33203125	10694.0595703125	12787.009765625	13388.9541015625	18421.796875	19373.111328125	11595.1435546875	14094.5234375	16150.76953125	15553.505859375	13724.1611328125	13287.072265625	12125.7587890625	15812.8310546875	16880.73828125	15573.529296875	16970.48046875	16122.69921875	15230.951171875	18161.75	14742.87890625	14592.640625	14014.7314453125	13855.2294921875	10566.3076171875	15027.6162109375	16817.69921875	16679.783203125	15807.0771484375	14321.7744140625	14875.8076171875	12682.740234375	13622.189453125	15214.671875	15813.1865234375	10867.1357421875	11893.1171875	11661.86328125	15703.908203125	20150.1875	12817.748046875	13517.8017578125	15231.2236328125
1800	2100	14925.0	13541.5625	12304.4130859375	11010.962890625	10184.6943359375	15533.599609375	18114.56640625	10850.01953125	15631.271484375	15832.7275390625	12454.0576171875	11035.4267578125	17560.669921875	8701.2939453125	14743.4580078125	13699.8740234375	12253.640625	11808.8408203125	9543.02734375	14793.5224609375	18740.84375	15634.4873046875	15678.3916015625	8685.4453125	17686.017578125	9894.333984375	6594.91552734375	11240.83984375	9487.396484375	17252.787109375	13738.341796875	8647.703125	14761.201171875	10899.2783203125	9719.14453125	8808.125	12810.25	14966.845703125	16309.69921875	15477.228515625	13355.9150390625	12692.3330078125	17075.20703125	12959.7568359375	12308.7548828125	13064.7138671875	13071.888671875	9923.4765625	14671.94140625	15682.6796875	15773.2275390625	15284.8037109375	13587.2275390625	12177.7021484375	12047.0126953125	11444.392578125	11763.0634765625	14769.7705078125	8610.4521484375	12298.796875	11210.478515625	16227.69921875	15994.7392578125	8748.6943359375	13051.560546875	14049.98046875	12683.48828125	12260.2138671875	10969.1201171875	10136.826171875	11759.3623046875	15472.001953125	14163.6123046875	14794.1630859375	13991.98046875	13391.2236328125	15951.3828125	12527.88671875	11626.1171875	11878.6640625	12522.2197265625	8785.154296875	13057.9326171875	14976.7607421875	14071.0732421875	13365.2431640625	13328.5107421875	12383.732421875	10777.7802734375	11004.8876953125	13994.619140625	13872.3837890625	8843.8173828125	11810.1298828125	9656.265625	14397.748046875	16113.8203125	10544.845703125	11688.619140625	13059.05859375
2100	2400	13356.8056640625	11397.27734375	10533.2861328125	9234.365234375	9630.873046875	13412.98046875	15489.087890625	9061.2265625	12904.0361328125	14462.6845703125	11899.3935546875	7772.046875	14734.0546875	7855.6083984375	13170.892578125	11624.0498046875	10322.759765625	9606.8154296875	8815.46484375	12683.4541015625	15173.9072265625	14424.9736328125	13107.794921875	6868.54150390625	14764.97265625	10531.677734375	6025.45947265625	10611.478515625	8292.2431640625	14703.564453125	12638.1123046875	8419.7666015625	12865.4501953125	9346.25390625	9034.029296875	7555.11572265625	10091.83203125	13333.5166015625	15914.0244140625	13371.220703125	11399.0087890625	11415.3203125	14969.318359375	12190.7265625	10467.828125	10912.666015625	11108.5693359375	8071.75634765625	12207.2939453125	12645.3642578125	13641.6083984375	13464.150390625	12607.546875	10826.6142578125	10644.8173828125	9507.1064453125	10838.103515625	12754.9423828125	7506.92578125	12413.1689453125	9294.4970703125	15029.640625	13874.892578125	6998.921875	10985.927734375	11861.28515625	10163.4462890625	8681.5107421875	10392.740234375	8761.3671875	9984.40234375	13725.7666015625	13364.208984375	13119.251953125	12058.94140625	11736.7412109375	14213.83203125	10831.357421875	9481.451171875	10242.04296875	10299.11328125	7608.66650390625	11484.443359375	12827.392578125	12173.3388671875	12158.8369140625	12130.689453125	10189.4521484375	9758.962890625	9872.7763671875	10473.9453125	12117.1044921875	7365.93017578125	12046.275390625	7751.8994140625	12956.0615234375	14132.3408203125	7936.572265625	9815.9619140625	11584.0
2400	2700	11998.4775390625	9999.3515625	9165.125	7822.3203125	8323.1083984375	11654.8173828125	14324.4091796875	7401.6484375	13036.6416015625	11956.8095703125	11089.962890625	5981.48876953125	12345.2412109375	8206.513671875	11920.81640625	9949.3056640625	9253.6005859375	8664.7470703125	7519.16748046875	11402.796875	13983.548828125	12566.552734375	11017.021484375	6570.49169921875	12515.0146484375	11060.720703125	5486.08642578125	10122.38671875	7089.3037109375	12812.0859375	11688.775390625	8160.65478515625	11145.265625	8227.6474609375	8255.494140625	6730.52197265625	9624.4482421875	12138.064453125	15771.603515625	11903.66015625	9594.6005859375	10019.4130859375	13221.9853515625	10699.4365234375	9262.9130859375	9761.6171875	9422.67578125	7205.7822265625	11922.27734375	11841.2607421875	12195.203125	13180.7724609375	12280.6728515625	9200.73046875	9715.2509765625	8105.2373046875	8700.2265625	11476.84375	6844.2060546875	12254.93359375	8111.26513671875	14207.50390625	11587.873046875	5508.04052734375	9116.4814453125	9981.171875	9976.4775390625	8666.73828125	9374.5576171875	8318.287109375	7413.619140625	12125.6435546875	12890.19921875	11127.6611328125	10153.3427734375	10924.4541015625	12516.3056640625	9113.138671875	7893.8115234375	8894.9248046875	9696.7861328125	6766.98828125	9845.439453125	11181.8466796875	11056.5224609375	11403.3330078125	11362.861328125	9297.4423828125	8988.8896484375	8332.5078125	8959.642578125	10643.8193359375	6047.55419921875	12090.4013671875	6820.69970703125	11941.357421875	11823.705078125	7729.06982421875	9634.7587890625	9912.1337890625
