frame_start	frame_end	parasubiculum	HATA	fimbria	hippocampal_fissure	HP_tail	presubiculum-head	presubiculum-body	subiculum-head	subiculum-body	CA1-head	CA1-body	CA3-head	CA3-body	CA4-head	CA4-body	GC-ML-DG-head	GC-ML-DG-body	molecular_layer_HP-head	molecular_layer_HP-body	Lateral-nucleus	Basal-nucleus	Central-nucleus	Medial-nucleus	Cortical-nucleus	Accessory-Basal-nucleus	Corticoamygdaloid-transitio	Anterior-amygdaloid-area-AAA	Paralaminar-nucleus
0	30	35.60456	14.20792	4.91949	14.90121	43.59176	17.99512	9.54676	12.79305	6.14663	34.79588	3.20191	6.87784	4.51402	4.85003	4.82086	9.67316	4.36798	20.85174	5.00241	33.70498	89.53923	6.43032	5.1866	4.67482	54.43873	89.85968	54.66469	128.7718
30	60	4697.45733	4008.18652	3451.06685	4704.33971	3518.37367	4689.82501	3961.69231	3407.24318	3890.5483	3971.57218	2489.17384	4741.84012	3042.63124	4222.74452	3392.278	4943.86999	3416.91309	4124.95578	3248.68259	2966.12156	3962.29845	3054.90384	3297.86043	3798.70263	4013.3081	3898.77993	4440.79935	3565.65854
60	90	14004.91735	10622.55191	12474.01063	16766.74057	13625.83144	15793.21197	16890.89198	15532.5511	15806.48235	13116.0465	13036.84717	15060.77837	12705.66768	15753.85741	15621.47733	15303.76563	15468.02666	14897.64473	15152.46053	12696.03814	13877.20288	11234.38071	9441.33633	9628.51944	12066.67603	12340.50437	17509.99003	12885.38472
90	120	23966.9423	20754.93046	21140.10641	27154.80973	25665.37012	26320.56305	27560.46971	26045.76731	25603.24044	24908.77203	23820.49875	29595.21692	20818.32414	30173.43038	23954.97207	28365.13553	24309.93989	27536.62027	25050.30895	25343.88988	23683.81404	23780.08628	22205.55547	21981.65856	23698.93379	20805.04139	23915.6849	24220.81274
120	150	28280.84102	27516.92519	29746.82176	34380.90104	34437.55235	34153.87051	34229.30911	33829.8101	34856.28049	33793.17122	31969.7647	32869.19626	28274.23247	36533.58969	31922.85143	36111.40135	32357.61973	35238.27922	33556.03368	34853.71839	37340.31443	30911.43455	28069.41107	26825.0348	30868.61632	28956.53968	41112.7264	35100.19284
150	180	30598.97187	30363.53446	31404.92708	38305.51034	35856.78213	35945.56099	35927.62302	37854.17023	36363.50805	37529.45574	33516.74174	39779.96682	32276.23079	40192.06965	35201.42082	38787.26261	35596.99733	38687.99635	35522.89271	38746.6122	39600.74141	33919.0089	33826.46745	35443.16442	36141.53665	32293.42399	37971.42139	34843.745
180	240	32711.05547	29475.21171	34008.97244	38186.82996	35767.00257	38869.6973	37979.58218	41107.14125	39449.79871	36673.91995	32298.55487	38425.62313	32154.78867	41144.08105	37151.34093	38763.50567	37311.1189	40678.92947	36617.8231	40784.02967	39289.89823	37383.83164	35121.23893	35560.63201	37529.04402	30964.3159	37120.84505	37367.87695
240	300	30622.74213	26737.47885	31920.99313	36178.88355	34361.40031	37042.01243	35087.91835	38074.88734	37945.8272	36382.58696	34912.83632	33881.58314	29765.84008	37739.53083	34181.98764	36435.9044	34398.43637	38084.44532	35227.8799	40629.67212	42072.94527	36554.07509	34459.40638	34100.09002	37319.15455	31289.00307	37423.12435	38686.62476
300	360	26974.02813	27711.29588	29477.81453	35731.47261	32292.64257	36253.90314	34942.57369	38904.27423	37808.68197	36115.4779	34453.22601	34395.78485	30598.5577	39136.95332	35525.12612	37387.723	35617.23924	38901.45847	35879.20389	39271.1988	38991.16071	31879.41619	30696.03333	30402.4739	30424.37091	28773.7726	35628.646	39906.1371
360	480	26693.5596	23671.49145	25412.2793	32443.78832	29347.08689	34774.72326	30572.47114	35629.96676	32765.57213	31862.29094	29205.76169	28521.24889	24802.04012	35237.38457	28753.14101	33705.93112	29087.41769	34633.04218	29588.45773	37402.65076	36460.17717	31131.10681	30367.90326	29946.29998	31316.4588	26944.82416	31586.38322	34382.75834
480	600	23831.53945	25710.18621	23555.52148	28384.85	26081.55433	30172.76523	27668.98364	32939.37595	30282.83162	29125.16698	25443.62371	25730.83396	22110.73408	31157.4304	25955.01124	30098.68731	25931.39584	30912.56908	26544.60573	34940.64686	32822.21331	28634.83325	28278.2944	28230.14879	29544.07096	26329.79794	30352.37956	31134.78254
600	900	19869.06925	20649.69811	20049.77539	23658.32945	22026.12485	25644.094	22842.40921	27481.96211	23998.58221	24107.10181	21542.33395	19897.29114	18396.57161	24753.96742	21200.61599	24287.81776	21267.74998	25592.03143	21892.64236	27764.90312	27443.37753	23661.74167	24657.45247	24904.40847	25277.49844	23113.58134	26215.92098	24018.14234
900	1200	15632.60555	17665.28401	14793.93341	17605.85865	16426.85413	19169.34911	17660.27113	20747.63142	18758.34698	18904.10405	17190.28982	15624.30209	13828.60551	18281.13072	15722.11973	18337.30399	15980.15761	19446.71104	16687.82247	22527.52167	20308.2842	18991.28917	20611.98177	21246.15794	19628.60923	17776.81168	18834.30981	19677.2616
1200	1500	12906.5971	13356.75186	12427.10569	14720.52681	13199.38693	15651.2933	14534.21682	16542.86421	15678.15758	15379.87678	13294.50107	13405.38202	11709.33284	15259.90635	13117.24144	15262.63208	13360.6575	15944.17381	13577.48618	18517.69997	16615.72332	17311.2171	17800.56335	18517.32755	16179.37902	14301.92819	15877.42139	15185.84254
1500	1800	10646.21669	13260.73933	11133.9265	12865.67311	11711.04625	13011.09234	12911.16696	14499.80789	13258.97094	13027.84212	12920.6984	12052.14016	11128.5936	12763.69336	11891.30809	13218.84806	12198.2097	13423.40887	12452.26226	15874.91186	13503.1222	14756.61953	15253.54616	14503.81632	13194.18669	12553.68844	14110.20085	12768.19772
1800	2100	9244.75304	12481.36306	9939.30114	10872.78098	11271.21396	11110.2924	11555.25166	12204.95109	11853.43173	11648.39112	11513.43804	9652.15409	9555.55725	9727.86118	10022.31255	10538.67745	10337.99707	11060.23247	10790.51018	14263.80552	11843.54867	13688.38027	14937.65677	15475.18053	12513.51749	11702.15214	11063.94279	11570.76025
2100	2400	8197.36553	10755.98548	9177.31688	9841.08781	10462.22077	9914.32876	10954.14421	11962.32769	11188.51111	10237.32057	10445.81668	9425.6944	8648.51157	9927.58178	9299.15866	10002.90902	9505.96228	10524.06256	9909.0897	12748.63518	10152.96111	11506.54466	12800.45189	12352.15514	10380.70354	10346.98001	11211.12476	9162.90605
2400	2700	6983.38877	10658.93143	8886.08574	8630.81973	9292.92605	8553.84434	9102.37358	9743.43333	9436.51754	9088.49615	9671.702	9740.23183	8677.67606	8556.58666	8308.48541	8970.26661	8479.63529	8757.54372	8894.0363	10693.69798	9295.69477	11943.81899	12071.1166	11644.10866	10040.73737	9294.07947	8657.43825	8687.64579
2700	3000	6607.0136	10815.67694	8367.80764	7712.5736	7961.36042	7010.26929	9126.10918	9344.07052	9494.63177	8486.41067	9627.67043	8247.51844	8637.26204	7969.46614	8557.93732	8009.34293	8646.9618	8223.18257	8983.16886	10273.49267	8269.40581	9731.27882	11047.50951	10947.81077	9072.23396	8581.46307	8187.19039	8192.56961
3000	3300	6537.27003	8569.0388	6996.0017	7513.70134	7400.90765	7313.03761	7382.03026	8933.50672	8141.35216	8498.98624	8668.49776	8057.66964	6778.29241	7657.91525	7066.70487	7930.26103	7262.24102	8252.62953	7415.50321	10727.97134	8338.13755	10347.43286	10185.32201	10045.46964	8624.40335	7661.07079	7973.62773	7831.99432
3300	3600	6165.00195	8285.44832	6327.88189	6786.07667	7548.22732	7247.89514	7939.99997	8177.34169	7629.1878	7436.71598	8304.44843	6895.10362	6750.04369	6548.59903	6468.66151	6991.64773	6812.14975	7156.32604	7236.08611	8606.86644	7598.83279	9203.04058	8859.0915	8185.56199	8170.94083	7230.80591	8096.48043	6220.69504
3600	3900	5841.80462	8577.81594	5564.7409	6473.15814	6096.20888	7069.65098	6961.93975	8265.88053	7250.16236	6919.30914	7235.39698	7907.34658	6450.76587	6481.20521	6227.71595	6722.98471	6559.48581	7092.67973	6649.74281	8859.44832	6628.61772	8835.2089	8619.56641	8422.58365	7845.92402	7113.34836	6074.24107	6056.48995
3900	4200	6347.41931	5649.80233	6409.9077	6003.60951	6380.34516	6712.3505	6285.69344	6354.14478	7120.00034	5769.83633	6588.19136	4719.83999	4929.77589	5147.79276	5591.04879	5244.8678	5645.17462	5782.16375	5967.54848	7255.17095	6336.60474	7724.98147	7758.32363	7015.76463	5750.92311	5338.86644	5800.1319	5945.63076
4200	4500	4607.97511	4786.89004	5762.80304	5871.89787	5284.90381	5722.57415	6499.65203	6433.38258	6657.24413	5802.97778	7997.71333	6328.78553	6133.2981	6162.5923	5814.79295	6140.79368	6110.6357	5985.80113	6518.40463	6041.55688	4616.90173	7229.59867	7709.8376	8252.59468	4755.83594	4340.31675	4354.32379	4687.22948
4500	4800	5278.37091	5493.10473	6260.05112	5271.22137	6860.18837	5099.0299	5588.66016	5906.61907	6297.4735	5271.66541	7028.02486	4249.34761	6421.66613	4522.74818	6059.18882	4689.37829	6220.56114	5083.68102	6392.78312	6027.59422	5632.55567	6949.22694	7707.63958	7417.79468	5916.56682	5892.62796	5429.18024	5636.03833
4800	5100	5329.1812	6008.19263	4864.39312	5081.76371	5587.94737	5551.07278	5830.28652	5604.86011	5103.68607	5241.34464	5780.64352	5459.70939	5299.11789	4826.59218	4930.25252	5196.3727	5039.20968	5097.10881	5266.85415	7099.28427	4225.3228	6904.96718	6545.73857	6615.26294	5025.27153	5065.70434	4752.80663	4941.06444
5100	5400	3927.16169	5381.84807	6480.8931	4959.01335	5425.3736	5080.78742	4959.09572	5752.02972	5454.51029	4896.33951	5516.5377	4836.5785	5066.05976	5121.70242	4733.42634	5211.26305	4861.51681	5013.92155	5039.01256	6678.0779	4744.44487	6366.09572	6708.09548	6298.44067	4744.67923	4760.37642	8703.71708	3348.4281
5400	5700	3652.82478	6484.85853	3396.27229	3909.11156	5746.42704	3901.08981	4725.61963	4591.40748	4656.08978	4733.26762	4813.2924	4690.20753	3450.51188	4310.94528	3552.68848	4600.642	3841.2886	4399.42432	3979.22901	6893.04807	5450.02363	4485.49749	5253.87511	5679.76052	4227.04635	4284.44285	6496.4349	4881.40157
5700	6000	5490.78637	5057.72232	3453.72374	4769.15427	4818.53662	4781.92481	4999.97682	5221.49878	3852.32907	4587.55529	3746.97029	6250.16521	4062.51603	4700.42342	3362.90909	4544.9648	3599.22199	4818.01779	3816.91022	5225.109	4482.47814	6501.67942	6235.03346	5556.48844	4289.66145	3759.66167	4215.83545	5843.5052
6000	6300	3919.03329	7126.16111	3950.33282	4298.84847	5442.01721	4707.07314	4494.97558	4488.5702	4641.74669	5061.48992	4415.93984	6223.91256	4154.3452	4754.08784	4906.62154	5462.09416	4788.58914	4672.40973	4588.41059	5334.80677	3978.2008	5353.66358	5471.30487	5449.92108	4358.5273	4446.89616	4870.80373	4065.69276
6300	6600	1893.62488	5056.41916	3280.76241	2615.00891	3209.75462	1742.33541	3547.36351	3521.96842	4055.91457	3700.47257	5021.06074	3744.42162	4338.12462	3288.93714	4098.44159	3438.57471	4179.47804	3231.00586	4183.39326	3682.10451	3359.90417	5080.83818	4614.28148	4510.28724	4685.52877	4058.72916	4230.4437	2916.70409
6600	6900	4625.60602	4223.93437	5715.56491	3910.61587	4406.42798	3251.94392	2813.84705	4306.66783	4251.16371	5949.87076	5187.63797	5219.86379	4432.19896	6402.54429	3850.7494	5363.67772	3957.97506	6224.66387	3885.42791	7189.02763	4124.53763	7516.3758	6701.21248	5436.55604	4634.06661	3462.76616	5333.31525	4064.33366
6900	7200	3014.41101	4264.32617	4549.67204	3778.10686	4124.23861	3917.09021	5878.70856	3010.77074	3828.78127	3423.20349	4640.75244	2921.98654	5066.19528	3699.02385	4186.85959	3894.93954	3943.60259	3219.06327	4713.21632	3853.8265	3407.26527	5045.18268	4357.79176	4931.94804	5421.2898	4390.57872	3641.93575	1559.41176
