frame_start	frame_end	Left-Cerebral-White-Matter	Left-Cerebellum-White-Matter	Left-Cerebellum-Cortex	Left-Thalamus	Left-Caudate	Left-Putamen	Left-Pallidum	Brain-Stem	Left-Hippocampus	Left-Amygdala	CSF	Left-Accumbens-area	Left-VentralDC	Left-choroid-plexus	Right-Cerebral-White-Matter	Right-Cerebellum-White-Matter	Right-Cerebellum-Cortex	Right-Thalamus	Right-Caudate	Right-Putamen	Right-Pallidum	Right-Hippocampus	Right-Amygdala	Right-Accumbens-area	Right-VentralDC	Right-choroid-plexus	AirCavity	Skull	Vermis	Pons	CSF-ExtraCerebral	Head-ExtraCerebral	ctx-lh-bankssts	ctx-lh-caudalanteriorcingulate	ctx-lh-caudalmiddlefrontal	ctx-lh-cuneus	ctx-lh-entorhinal	ctx-lh-fusiform	ctx-lh-inferiorparietal	ctx-lh-inferiortemporal	ctx-lh-isthmuscingulate	ctx-lh-lateraloccipital	ctx-lh-lateralorbitofrontal	ctx-lh-lingual	ctx-lh-medialorbitofrontal	ctx-lh-middletemporal	ctx-lh-parahippocampal	ctx-lh-paracentral	ctx-lh-parsopercularis	ctx-lh-parsorbitalis	ctx-lh-parstriangularis	ctx-lh-pericalcarine	ctx-lh-postcentral	ctx-lh-posteriorcingulate	ctx-lh-precentral	ctx-lh-precuneus	ctx-lh-rostralanteriorcingulate	ctx-lh-rostralmiddlefrontal	ctx-lh-superiorfrontal	ctx-lh-superiorparietal	ctx-lh-superiortemporal	ctx-lh-supramarginal	ctx-lh-frontalpole	ctx-lh-temporalpole	ctx-lh-transversetemporal	ctx-lh-insula	ctx-rh-bankssts	ctx-rh-caudalanteriorcingulate	ctx-rh-caudalmiddlefrontal	ctx-rh-cuneus	ctx-rh-entorhinal	ctx-rh-fusiform	ctx-rh-inferiorparietal	ctx-rh-inferiortemporal	ctx-rh-isthmuscingulate	ctx-rh-lateraloccipital	ctx-rh-lateralorbitofrontal	ctx-rh-lingual	ctx-rh-medialorbitofrontal	ctx-rh-middletemporal	ctx-rh-parahippocampal	ctx-rh-paracentral	ctx-rh-parsopercularis	ctx-rh-parsorbitalis	ctx-rh-parstriangularis	ctx-rh-pericalcarine	ctx-rh-postcentral	ctx-rh-posteriorcingulate	ctx-rh-precentral	ctx-rh-precuneus	ctx-rh-rostralanteriorcingulate	ctx-rh-rostralmiddlefrontal	ctx-rh-superiorfrontal	ctx-rh-superiorparietal	ctx-rh-superiortemporal	ctx-rh-supramarginal	ctx-rh-frontalpole	ctx-rh-temporalpole	ctx-rh-transversetemporal	ctx-rh-insula
0	30	20.099485397338867	25.909595489501953	23.559682846069336	28.578649520874023	11.569098472595215	59.95442581176758	62.68304443359375	36.06488800048828	102.0300521850586	61.205997467041016	36.61570358276367	11.083657264709473	13.212430000305176	10.642168998718262	26.989877700805664	21.079345703125	28.801836013793945	26.97414779663086	51.32405090332031	26.949865341186523	82.92776489257812	13.894424438476562	35.993316650390625	10.189521789550781	17.052675247192383	85.96932220458984	23.492042541503906	24.075918197631836	54.80754470825195	32.80105972290039	22.443843841552734	23.731687545776367	13.110332489013672	28.02126121520996	17.458202362060547	2.8289589881896973	25.440563201904297	11.068990707397461	20.752607345581055	10.495465278625488	25.350725173950195	12.429909706115723	13.364860534667969	18.206003189086914	9.451424598693848	18.410171508789062	13.450504302978516	9.09440803527832	16.505868911743164	11.714075088500977	34.412384033203125	4.799835681915283	11.211613655090332	17.27150535583496	15.08882999420166	28.044437408447266	12.945793151855469	19.991878509521484	14.947816848754883	8.584501266479492	19.988121032714844	30.997507095336914	3.8836615085601807	12.793177604675293	14.339862823486328	13.891045570373535	38.55280685424805	16.03841209411621	27.516395568847656	10.912342071533203	42.96078872680664	20.470592498779297	24.0423583984375	67.37841033935547	9.705170631408691	23.452381134033203	44.196861267089844	14.84000015258789	37.17765808105469	30.319873809814453	15.31414794921875	13.11318588256836	18.924646377563477	61.07212448120117	28.336868286132812	12.058865547180176	21.206506729125977	9.651333808898926	21.61368179321289	25.894798278808594	22.3642520904541	26.431520462036133	20.1500186920166	19.182035446166992	36.825809478759766	24.242259979248047	23.53594970703125	20.608598709106445	48.20297622680664	45.82850646972656
30	60	2831.150390625	2800.819091796875	3726.411376953125	3858.857177734375	3105.0615234375	3982.3115234375	3451.591064453125	3323.341552734375	3603.505859375	4134.05810546875	1942.681396484375	3739.6357421875	3425.97119140625	3137.33203125	2878.828369140625	3144.486572265625	3718.224365234375	3939.72900390625	3482.859619140625	4316.92626953125	3902.37353515625	3389.28173828125	4037.175537109375	3925.874267578125	3772.55615234375	3264.37890625	668.06689453125	1016.2284545898438	3794.2822265625	3574.485107421875	3418.290771484375	770.1927490234375	4136.41943359375	4886.73583984375	3729.64306640625	3940.716552734375	3344.411376953125	3722.802734375	3867.68603515625	3716.83935546875	3926.0830078125	4084.57373046875	4219.263671875	3924.798828125	4695.728515625	3645.02978515625	3891.89404296875	3722.16064453125	4485.3076171875	4242.09619140625	4368.68115234375	4542.271484375	3824.191650390625	4760.55224609375	4220.48046875	4126.19873046875	4894.3251953125	4328.841796875	3904.683349609375	3800.435546875	4219.16259765625	4408.65625	4510.66455078125	3038.438720703125	6024.1796875	5252.62451171875	4526.6962890625	4442.85498046875	4231.4716796875	3818.482421875	2988.064208984375	3766.633544921875	3959.567626953125	3614.915283203125	4043.4462890625	4209.669921875	4577.3828125	4043.920166015625	4860.87744140625	3592.98046875	3697.6416015625	3830.4716796875	4548.03955078125	4370.4306640625	4620.15087890625	4379.3759765625	4056.334716796875	4534.58740234375	4218.59326171875	4094.010009765625	5109.5166015625	4571.37841796875	4133.39111328125	3845.486328125	4289.56689453125	4330.248046875	3929.500732421875	4716.40625	6184.78857421875	4746.26806640625
60	90	12330.3857421875	13324.5869140625	16266.513671875	16994.140625	14588.822265625	17651.765625	14545.7470703125	12991.8896484375	14420.9169921875	14786.8837890625	8136.525390625	16088.1201171875	13762.31640625	12540.7138671875	12502.62890625	12986.984375	16770.31640625	16688.646484375	14805.76171875	18746.6328125	14243.7236328125	14339.4326171875	13749.81640625	19624.751953125	13743.490234375	13166.3896484375	2266.666748046875	3635.486083984375	17610.072265625	13925.5380859375	13654.7587890625	2611.624755859375	16830.890625	18088.623046875	18315.78125	21272.154296875	12965.2158203125	16567.236328125	16671.34375	15582.486328125	16424.703125	18124.763671875	19343.7890625	18824.9765625	19112.072265625	15886.52734375	15305.85546875	16323.6728515625	19063.474609375	19496.255859375	18711.94140625	21722.568359375	16857.044921875	20448.15234375	17563.376953125	18924.15234375	19669.544921875	19461.552734375	17086.076171875	17024.76953125	16403.470703125	17600.021484375	18768.0234375	13668.6015625	24164.68359375	18064.654296875	17239.845703125	18127.869140625	17992.5	20764.15234375	12742.1982421875	15964.8115234375	16963.54296875	14885.900390625	17908.32421875	18444.302734375	18632.662109375	18556.93359375	18543.798828125	15871.7265625	14883.30859375	16414.025390625	19305.9296875	18527.068359375	19307.291015625	20685.91796875	17875.212890625	19763.484375	18154.166015625	18113.69921875	20064.89453125	19693.990234375	17603.357421875	16386.0859375	16960.650390625	17760.330078125	20239.560546875	14382.9091796875	22862.45703125	18628.21484375
90	120	23478.302734375	25540.34375	30602.509765625	32460.486328125	28408.998046875	35500.44921875	27105.45703125	23069.427734375	27150.6328125	24456.146484375	15202.3515625	30399.65625	26566.25	22326.8671875	23876.6015625	25313.359375	31710.83984375	31160.783203125	27047.80859375	35925.07421875	27724.275390625	25622.109375	26171.8125	33071.2109375	24837.642578125	24457.974609375	3891.486083984375	6386.2138671875	31798.103515625	25983.923828125	24969.353515625	4483.58154296875	34315.3125	35050.421875	33707.16015625	40480.4453125	25897.95703125	31150.224609375	30843.447265625	29741.306640625	32298.068359375	34763.609375	35699.3359375	35642.84765625	35796.29296875	30354.755859375	28497.302734375	31694.4140625	35266.3828125	35853.28125	36213.90625	41780.0703125	31619.640625	36959.05078125	32065.40625	35676.9375	36985.44921875	35879.55078125	33201.33984375	32397.681640625	31257.73828125	32646.759765625	38416.40234375	25648.912109375	41223.0625	33896.45703125	34197.875	33653.99609375	35808.859375	39094.71484375	24954.125	31328.255859375	33050.7265625	28260.365234375	33461.74609375	36393.77734375	35207.140625	36290.9140625	35482.5	29751.080078125	28103.103515625	31299.541015625	35470.62109375	36029.3984375	36922.6875	42231.07421875	34202.09765625	36109.21484375	34299.17578125	34384.12890625	34738.1640625	37072.75	34153.22265625	31577.115234375	31995.1875	33682.7109375	37750.53125	25675.666015625	44257.2890625	33479.39453125
120	150	33440.625	36503.6171875	44606.71484375	46448.04296875	40971.03515625	52103.88671875	38717.31640625	32183.42578125	38555.71484375	36677.37890625	21628.439453125	50716.60546875	36957.11328125	32517.173828125	33859.78125	36627.625	46137.80078125	44090.65234375	41289.9921875	51992.53125	40397.48828125	39516.6875	36082.66015625	43187.515625	36978.3203125	35725.953125	5180.05078125	8610.384765625	48469.26171875	37732.37109375	34403.19140625	6089.09912109375	48224.453125	45616.81640625	48645.71484375	56173.96875	34797.84375	45143.828125	44638.625	42875.40234375	44481.62890625	48866.28515625	50443.47265625	51018.3203125	49385.19140625	44993.25390625	39952.1171875	44276.37890625	50157.52734375	51684.5703125	50968.1875	59513.8671875	44945.5859375	54056.35546875	45768.8125	51426.17578125	49616.03515625	51798.91796875	46985.66015625	45453.0390625	44838.7109375	47252.875	53809.37890625	36026.39453125	57840.703125	46421.7734375	46551.80078125	45760.39453125	49506.89453125	55515.6484375	34231.54296875	44235.4140625	46925.39453125	42147.85546875	45726.359375	52025.84765625	49185.64453125	50408.96875	50442.5234375	43582.7578125	38555.62890625	44898.36328125	51338.71484375	52654.51171875	52297.19921875	58361.9609375	47320.59375	50835.67578125	48031.140625	49496.171875	49200.02734375	52680.51171875	47392.94140625	45396.421875	45457.6328125	47545.4140625	54113.1015625	37801.671875	57429.92578125	46774.65234375
150	180	37634.64453125	41295.30859375	50514.5390625	53110.2578125	45400.1953125	60200.22265625	43592.69921875	36240.19140625	42184.31640625	43289.375	23966.427734375	55079.8671875	41223.19140625	36554.67578125	37886.9453125	41260.52734375	51555.4609375	49638.40625	45951.85546875	58206.12109375	43997.59375	41080.8671875	41843.84375	47752.81640625	41120.90234375	37213.3046875	5614.23291015625	9334.072265625	54760.62109375	41925.92578125	37225.23828125	6535.1015625	53207.3203125	50527.68359375	53402.98046875	63228.50390625	39761.1875	51519.9375	49792.44140625	48872.62109375	49623.30078125	54857.84375	56869.99609375	57242.04296875	55277.8671875	49421.109375	42851.89453125	49503.76171875	55821.390625	56812.43359375	57782.34765625	67173.1875	49370.078125	58261.65234375	51136.01171875	56453.23046875	55137.65625	57595.24609375	51680.1796875	51261.12890625	48883.02734375	52695.51171875	58918.2734375	40037.25	61311.875	51203.66015625	51591.94921875	50942.578125	54726.0703125	61095.96875	37939.5546875	49940.0625	53287.4765625	47010.1640625	52597.41796875	57643.10546875	52956.921875	55895.73828125	55214.125	49519.9921875	41984.78515625	50632.01953125	55672.55859375	57023.703125	58577.28125	65284.30078125	52433.66796875	56577.8046875	54052.5	53844.8046875	50317.40234375	58758.26171875	52263.7421875	50082.58984375	50647.15625	52434.65234375	60677.1484375	39418.23046875	65700.0390625	51489.63671875
180	240	39360.10546875	43156.4453125	52095.62890625	55039.203125	48631.8515625	62304.5546875	46941.421875	36814.15625	44001.67578125	43438.58203125	24058.84375	57698.9375	42891.44140625	35461.30859375	39446.03515625	42054.55859375	53539.8359375	53823.953125	48277.53515625	61552.6171875	47193.46484375	42477.91015625	41843.25390625	51431.96484375	42348.28515625	36389.26171875	5697.6826171875	9563.8076171875	54796.359375	43683.73046875	37703.76171875	6745.66552734375	56078.3203125	51558.625	55389.23828125	65467.078125	39968.0234375	53287.46875	52322.03125	50559.515625	49316.4609375	55810.09375	58564.1328125	58902.609375	57296.34765625	51831.8359375	43991.09375	50187.46484375	57835.65234375	57549.84765625	59011.81640625	66509.265625	51400.26171875	60092.56640625	52821.4375	57580.140625	56185.19140625	59623.640625	53862.66015625	52260.7890625	51066.12109375	53864.97265625	59009.22265625	42441.9140625	63850.1953125	52839.12890625	53249.390625	51176.8046875	56672.34375	63105.1015625	40214.44140625	51923.4609375	55247.6796875	48659.39453125	52729.5546875	58831.46484375	55942.64453125	56652.26953125	57345.8046875	51686.53125	44822.8125	50998.96875	57685.25390625	58947.91796875	59640.3671875	67457.9140625	54204.04296875	57498.91015625	55307.71484375	55714.89453125	54982.7734375	60455.49609375	54174.609375	51211.69140625	52925.203125	54970.109375	60610.33203125	40767.15625	62326.8203125	52629.53125
240	300	39367.8046875	42847.671875	51869.26953125	54440.46875	49051.546875	62824.26953125	48671.78515625	36890.03125	42767.734375	44220.53125	23397.169921875	57753.765625	44048.890625	33161.05078125	39486.62109375	42673.1875	53506.0859375	54079.59765625	48614.03125	61748.55859375	48849.421875	42096.32421875	42829.4921875	52783.40234375	44298.828125	34071.953125	5666.97119140625	9645.580078125	54853.42578125	43865.5390625	36515.04296875	6923.25048828125	54731.4453125	51024.26953125	54437.9921875	62034.51171875	39038.9296875	53015.4375	51007.07421875	50581.484375	50049.46875	53704.7578125	56697.01953125	56457.15234375	55802.0	51601.9453125	45205.49609375	48428.60546875	56382.796875	54800.59375	56571.99609375	65140.63671875	50569.68359375	58241.18359375	52192.625	56132.40234375	55822.46484375	58443.85546875	52284.62890625	50547.24609375	50742.33203125	52773.52734375	57063.75390625	43945.09375	61697.234375	51820.21875	53107.29296875	51880.609375	55779.6796875	61139.55859375	39373.640625	51818.78125	53762.99609375	48523.40625	51318.2265625	56788.41015625	54229.26953125	54498.31640625	57225.21875	51454.7890625	45432.1953125	50520.8671875	55687.98046875	55951.671875	57508.3359375	63874.37109375	52436.359375	56171.4921875	54535.3828125	54043.68359375	52513.0546875	59507.58203125	53487.76953125	50082.62109375	52054.19140625	53283.71875	60396.29296875	41090.13671875	61061.8515625	52412.46875
300	360	38158.046875	41465.1796875	49639.20703125	54022.26171875	47356.21875	61047.7109375	48088.39453125	36773.57421875	43007.8203125	43813.015625	22590.857421875	56330.421875	41080.3125	29243.8828125	38247.04296875	41484.24609375	51048.0859375	53093.78125	47090.26171875	59763.41015625	46219.45703125	40830.10546875	41238.515625	52266.1484375	42161.19921875	30299.919921875	5515.14599609375	9496.357421875	51004.484375	42276.125	34356.44921875	6979.6220703125	52696.734375	49386.11328125	50931.05859375	58982.921875	39005.11328125	50345.07421875	48841.6796875	48526.359375	47307.5390625	50546.015625	54373.359375	52033.703125	54006.33984375	50153.3515625	42722.6328125	46492.52734375	53430.08203125	53271.80859375	54021.06640625	58626.9765625	48062.26171875	56539.875	48635.93359375	52911.6640625	53267.1640625	55233.76953125	50065.890625	47775.19140625	48463.04296875	49764.3046875	55977.84375	42206.09375	55505.4765625	50676.6015625	50618.453125	47844.56640625	51866.91015625	57219.1484375	37447.4140625	49423.53125	51192.78515625	47288.6875	49462.828125	53495.97265625	51422.7578125	50751.8515625	53647.390625	49303.6953125	43924.37890625	47843.515625	53105.44140625	53804.1953125	54156.84375	58483.8671875	49772.453125	54271.9453125	51565.2734375	51620.75390625	51270.03515625	56364.99609375	50704.7109375	47469.40234375	49877.98828125	51060.23828125	58173.19921875	40009.63671875	60131.94140625	49501.4609375
360	480	35981.77734375	39915.14453125	45787.77734375	50949.7890625	43788.45703125	56133.35546875	46584.828125	34552.62890625	38632.67578125	42950.94140625	20751.734375	50585.47265625	40880.9296875	25931.6328125	36116.08203125	39481.90625	46726.0	48911.109375	44200.41796875	55796.58203125	46420.89453125	39339.8515625	41349.95703125	48426.51171875	40189.4453125	28662.9921875	5411.94287109375	9171.5693359375	45528.3359375	39714.23828125	30784.08984375	7085.85009765625	47872.515625	44661.39453125	46054.9765625	52822.1171875	36868.17578125	47246.59765625	44396.39453125	45557.74609375	42500.49609375	45264.44140625	49957.75390625	47178.2421875	49096.5625	46133.94921875	39858.0546875	42548.66015625	48604.515625	48417.22265625	48331.53125	52017.54296875	43712.1875	51176.51171875	43651.05859375	47674.12890625	48606.85546875	49898.0390625	45274.6875	42544.81640625	44865.58203125	45382.75	50355.46484375	40306.12109375	50873.421875	46150.0	47293.51953125	44192.4765625	47031.9296875	50577.73046875	34875.02734375	46066.34375	46686.4453125	43831.02734375	43741.453125	48122.9453125	47498.08203125	45746.5625	49189.19140625	45679.546875	39917.59375	43236.1328125	48421.4140625	47812.515625	49697.484375	51812.0625	44548.625	48222.70703125	46455.96484375	45867.8046875	47323.4921875	50628.17578125	46058.9921875	42799.24609375	45495.44140625	46365.29296875	50702.203125	38574.171875	50799.82421875	46759.328125
480	600	32936.4140625	36299.86328125	40215.76171875	46053.1953125	38160.265625	50050.234375	43752.390625	31878.490234375	35761.75	39237.36328125	18744.0703125	47214.6328125	38145.328125	22298.892578125	33051.15625	36539.4765625	41213.31640625	45368.453125	39529.265625	49485.0859375	42470.90625	35333.1640625	39054.98828125	42248.30078125	37776.38671875	25438.681640625	5055.16943359375	8785.0986328125	38787.21484375	37008.2734375	26523.8046875	7246.0322265625	41760.71484375	39232.0859375	40012.3046875	44357.765625	33657.69140625	41363.2734375	38362.61328125	40540.734375	37779.3359375	38514.42578125	43281.48828125	40554.35546875	42942.375	41273.5390625	36285.6171875	36771.85546875	42028.42578125	41400.9609375	42530.11328125	43931.19140625	37856.4375	43340.609375	37742.92578125	41192.578125	44016.88671875	43322.10546875	39377.30859375	36981.125	39784.62890625	39300.65625	43594.53125	38426.46484375	43952.77734375	41260.57421875	41831.7890625	39336.39453125	40077.68359375	43337.56640625	32715.390625	41075.07421875	40647.37890625	39718.546875	39652.74609375	41793.56640625	41004.48046875	39546.546875	43466.35546875	40467.0625	36030.13671875	37872.77734375	41947.8203125	41210.296875	42581.55859375	43212.37890625	38273.7578125	42636.03125	40073.40234375	40235.52734375	42970.39453125	44116.43359375	39906.39453125	37089.06640625	40614.5625	40392.65234375	44696.40625	36208.796875	42779.26953125	41771.86328125
600	900	28891.423828125	31771.927734375	32110.94921875	38908.578125	31219.0859375	41267.578125	38137.76953125	27618.763671875	30679.861328125	33964.1484375	15982.36328125	38213.7734375	33288.53125	18433.236328125	28943.263671875	31868.869140625	32990.05859375	38340.84765625	32536.76953125	41274.2265625	37176.7578125	30315.052734375	33184.4453125	37687.96484375	32960.91796875	21010.935546875	4579.0751953125	8313.853515625	30698.484375	32013.0078125	21250.146484375	7367.0380859375	34020.87890625	32531.046875	32559.470703125	34915.3203125	28559.119140625	34674.0078125	30877.060546875	33725.1015625	30663.76171875	30720.12109375	35281.25390625	32056.46484375	35274.28515625	33886.734375	31022.416015625	29300.59375	34046.16796875	33020.82421875	33803.453125	33851.60546875	30717.958984375	35554.05859375	30207.08203125	32650.13671875	35259.84375	34965.0703125	31970.94140625	29577.236328125	32848.8828125	31680.78515625	35192.8125	32523.609375	34452.9375	34492.38671875	34678.55859375	32254.55078125	32503.90625	33869.921875	27820.2421875	33981.34765625	32963.515625	32888.9921875	31543.333984375	33146.6484375	34024.83984375	31810.83203125	35691.08203125	33402.0078125	30255.001953125	30117.267578125	33552.10546875	32901.5546875	34151.80078125	34004.37890625	30637.009765625	34560.6328125	32364.4296875	32099.669921875	35212.5546875	35457.15625	32266.724609375	29682.9296875	33277.8125	32377.625	35985.640625	31671.21484375	33726.58984375	34800.65625
900	1200	25137.25	26736.119140625	24288.314453125	31043.521484375	24157.0859375	32397.458984375	31975.080078125	23045.181640625	24874.4609375	28636.474609375	13459.1728515625	30042.099609375	28262.388671875	15284.2470703125	25099.689453125	27038.955078125	24688.298828125	30842.0546875	25140.732421875	31910.771484375	31526.935546875	25010.59375	28162.2109375	29184.7734375	28269.015625	17405.505859375	4277.18896484375	8071.43505859375	22713.36328125	27221.96484375	16780.431640625	7651.2119140625	27374.89453125	25797.32421875	25206.72265625	27012.767578125	23914.134765625	27623.83203125	24512.427734375	26996.40625	24660.130859375	24216.05078125	28172.2734375	25458.123046875	27887.341796875	27076.474609375	25101.28125	22649.01953125	26735.06640625	25869.609375	26780.443359375	26149.775390625	24330.7890625	27646.724609375	23713.0390625	25428.85546875	27666.55078125	27490.30078125	25046.416015625	23059.130859375	26144.0625	24919.9453125	27844.697265625	26585.056640625	26725.64453125	27915.203125	27586.505859375	25693.55078125	25181.701171875	26611.017578125	23077.560546875	27437.24609375	25886.330078125	26627.662109375	25702.955078125	26233.8359375	26685.556640625	25039.296875	28248.9296875	26531.205078125	24498.349609375	23247.248046875	26272.396484375	25811.283203125	27048.6015625	26387.041015625	23564.7109375	27832.134765625	25323.033203125	25248.29296875	27795.96875	27806.833984375	25454.841796875	23270.125	26428.490234375	25530.68359375	28004.734375	26069.955078125	27036.6953125	27970.412109375
1200	1500	22666.083984375	23438.11328125	19321.53125	25050.23046875	20081.076171875	26736.13671875	27591.34765625	19527.90234375	21248.13671875	24229.271484375	12026.806640625	24030.1796875	24792.833984375	12356.5087890625	22593.828125	23713.91015625	19710.24609375	25031.73828125	20541.478515625	26581.841796875	27545.82421875	21020.60546875	23177.72265625	24738.783203125	24651.90234375	14893.126953125	4234.62451171875	8140.25341796875	17848.853515625	24088.96875	14349.8095703125	7996.81787109375	23145.828125	21892.052734375	21262.53515625	22735.6015625	20291.1953125	23769.1015625	20668.98828125	23179.3046875	20743.24609375	20902.0703125	23615.10546875	22200.548828125	23780.75	22876.998046875	20768.85546875	18761.765625	22472.04296875	21755.923828125	22750.322265625	22748.83984375	20388.6328125	22955.087890625	19935.4375	21556.751953125	23282.48828125	23358.17578125	21069.541015625	19432.66015625	22014.03515625	21087.826171875	24095.435546875	22836.44140625	23416.697265625	23888.03125	23196.033203125	22449.931640625	21357.20703125	22104.84375	19981.61328125	23578.314453125	21658.369140625	22958.580078125	21856.353515625	22287.580078125	22879.9765625	21709.001953125	23434.732421875	22372.126953125	20968.55859375	19455.271484375	22033.2734375	22221.79296875	23051.248046875	22918.40625	19763.568359375	23374.78125	21324.73046875	21250.876953125	23356.65234375	23661.533203125	21191.9921875	19053.75	22265.095703125	21566.125	24461.630859375	21729.431640625	23020.927734375	23745.48046875
1500	1800	20833.56640625	20743.107421875	15929.2978515625	20903.5390625	16532.94921875	22501.271484375	23874.580078125	17101.11328125	18353.953125	20248.068359375	11053.3095703125	20417.666015625	21598.9609375	11065.392578125	20787.138671875	21119.55859375	16343.9140625	20470.119140625	17381.4453125	22181.552734375	24622.9609375	18290.79296875	20322.037109375	20066.55859375	21113.927734375	13379.08984375	4152.40283203125	8237.2392578125	15145.2265625	21234.552734375	12752.0859375	8437.6943359375	20863.74609375	19364.416015625	18513.521484375	20148.9140625	18235.751953125	21123.689453125	18173.48046875	20449.41796875	18364.93359375	18534.181640625	21140.966796875	19680.0234375	20164.517578125	20185.908203125	18565.427734375	16304.4609375	19926.6953125	19532.234375	20408.44140625	20352.373046875	18061.57421875	19999.1875	17342.607421875	19101.318359375	20002.431640625	20585.76171875	18248.90234375	17102.87109375	19437.302734375	18306.13671875	20999.98828125	19780.82421875	20503.5	20827.64453125	20853.00390625	19481.181640625	18422.00390625	19648.021484375	17087.6015625	20938.8671875	19035.724609375	20435.95703125	19107.53515625	20071.009765625	20538.037109375	19623.349609375	20654.44921875	19663.98828125	18851.3125	16826.30078125	19363.630859375	19336.40625	20323.88671875	20499.2734375	17424.177734375	20094.732421875	18572.513671875	18735.19921875	20382.65234375	20630.61328125	18660.146484375	16731.611328125	19598.701171875	18815.240234375	20768.83984375	19333.880859375	20173.607421875	20747.779296875
1800	2100	19107.310546875	18195.830078125	13351.859375	17485.76171875	14573.083984375	19289.3671875	21159.724609375	14737.978515625	16493.796875	17017.025390625	9969.99609375	17146.259765625	18849.568359375	9537.080078125	18983.6015625	18549.87890625	13493.1162109375	17158.43359375	14551.5615234375	18713.943359375	21243.423828125	16344.927734375	17177.48828125	17379.23828125	18661.734375	11627.9296875	4152.82958984375	8212.9345703125	12328.1259765625	19268.70703125	11567.4306640625	8559.103515625	18716.09765625	17007.13671875	16659.0703125	18116.06640625	15404.4599609375	19068.9296875	16360.7001953125	18655.634765625	16489.091796875	17048.154296875	18476.853515625	18102.822265625	18526.552734375	18185.23046875	16168.98828125	14548.9375	17659.7890625	16960.2890625	17845.931640625	18952.18359375	15976.7587890625	17917.390625	15643.75390625	17205.330078125	17853.345703125	18471.326171875	16279.6240234375	15269.8583984375	17324.736328125	16418.130859375	18919.611328125	17761.982421875	17967.93359375	18269.392578125	18974.591796875	16838.4609375	16672.513671875	17313.943359375	15485.818359375	18674.193359375	16773.283203125	18344.05859375	16918.0703125	17988.6953125	18247.83203125	17885.8828125	18178.412109375	17570.44921875	16587.615234375	14620.43359375	17389.625	17906.724609375	18144.6953125	18282.443359375	15317.2236328125	18267.63671875	16334.6259765625	16542.919921875	17262.099609375	18734.150390625	16407.66015625	14794.5693359375	17309.658203125	16706.791015625	18505.35546875	17111.298828125	17977.140625	18401.185546875
2100	2400	17705.599609375	15824.15625	11517.97265625	14726.251953125	12415.177734375	17049.2734375	18878.390625	12779.4609375	13875.89453125	15115.1953125	9084.50390625	14216.88671875	17328.234375	8451.265625	17532.357421875	16639.16015625	11801.6513671875	14408.751953125	12796.3369140625	16442.455078125	18924.029296875	13905.8330078125	15092.0126953125	13917.087890625	15949.4189453125	10576.435546875	4073.4091796875	8155.74658203125	10818.919921875	16774.634765625	10619.220703125	8658.48046875	16993.6484375	15503.8759765625	14955.9560546875	16492.43359375	14318.1767578125	17550.013671875	14914.216796875	17058.98828125	14888.73046875	15585.25390625	17309.802734375	16578.810546875	16499.552734375	16478.546875	14759.5263671875	13096.71875	16209.853515625	16474.919921875	16795.51171875	17236.376953125	14272.34765625	15808.5029296875	14030.9609375	15468.337890625	15658.873046875	16557.7109375	14777.49609375	13964.3623046875	15642.2138671875	15221.0009765625	17513.939453125	16626.21484375	16515.68359375	16466.1640625	17245.37109375	15329.3515625	14725.78515625	15799.5771484375	14426.75390625	17313.240234375	15334.79296875	16616.515625	15117.41796875	16459.458984375	16923.74609375	16346.9365234375	16123.576171875	15913.681640625	14868.6025390625	13184.4580078125	15888.9013671875	16634.90625	16442.771484375	17074.50390625	13827.6005859375	16049.474609375	14877.884765625	15180.1474609375	15216.1630859375	16843.677734375	14762.3369140625	13332.6318359375	15758.01953125	15356.767578125	17307.494140625	14642.8271484375	16458.611328125	16674.107421875
2400	2700	16376.076171875	14394.9501953125	10209.1865234375	12604.0947265625	11253.966796875	15376.001953125	17271.626953125	11293.2724609375	12800.6162109375	13501.6357421875	8752.9150390625	13041.0869140625	14195.296875	7367.07568359375	16225.58203125	14881.4931640625	10418.259765625	12245.2236328125	11817.81640625	14940.0751953125	16532.708984375	12491.0546875	12912.7802734375	12751.3310546875	14573.703125	9804.2265625	4054.75927734375	8066.40576171875	9562.25390625	14718.7822265625	9873.2919921875	8653.900390625	15637.3271484375	13978.474609375	13641.357421875	14925.568359375	13291.9736328125	15824.1494140625	13493.2412109375	15664.619140625	14093.1123046875	14223.685546875	16146.900390625	15279.1806640625	15072.33203125	15172.6689453125	13875.5283203125	11655.5556640625	15056.9619140625	15303.2734375	15516.47265625	15930.16015625	13039.908203125	15233.14453125	12948.5751953125	14186.8203125	14348.9150390625	15227.490234375	13310.828125	12869.2568359375	14302.0859375	13880.5546875	15660.4462890625	14620.404296875	15762.3232421875	14921.8671875	15872.59765625	13897.4423828125	13625.9619140625	14651.8056640625	12442.8740234375	15961.2568359375	14035.5810546875	15546.8916015625	13850.01171875	15046.1494140625	15394.232421875	15207.9853515625	14895.64453125	14365.4306640625	13797.92578125	12071.2470703125	15143.2265625	14921.8017578125	15213.75	15620.8525390625	12800.5595703125	14767.3583984375	13525.890625	13698.736328125	14179.5029296875	15320.2197265625	13184.0791015625	12170.2841796875	14272.2509765625	13856.466796875	15827.916015625	13287.673828125	14948.2001953125	14968.3974609375
