frame_start	frame_end	Left-Cerebral-White-Matter	Left-Cerebellum-White-Matter	Left-Cerebellum-Cortex	Left-Thalamus	Left-Caudate	Left-Putamen	Left-Pallidum	Brain-Stem	Left-Hippocampus	Left-Amygdala	CSF	Left-Accumbens-area	Left-VentralDC	Left-choroid-plexus	Right-Cerebral-White-Matter	Right-Cerebellum-White-Matter	Right-Cerebellum-Cortex	Right-Thalamus	Right-Caudate	Right-Putamen	Right-Pallidum	Right-Hippocampus	Right-Amygdala	Right-Accumbens-area	Right-VentralDC	Right-choroid-plexus	AirCavity	Skull	Vermis	Pons	CSF-ExtraCerebral	Head-ExtraCerebral	ctx-lh-bankssts	ctx-lh-caudalanteriorcingulate	ctx-lh-caudalmiddlefrontal	ctx-lh-cuneus	ctx-lh-entorhinal	ctx-lh-fusiform	ctx-lh-inferiorparietal	ctx-lh-inferiortemporal	ctx-lh-isthmuscingulate	ctx-lh-lateraloccipital	ctx-lh-lateralorbitofrontal	ctx-lh-lingual	ctx-lh-medialorbitofrontal	ctx-lh-middletemporal	ctx-lh-parahippocampal	ctx-lh-paracentral	ctx-lh-parsopercularis	ctx-lh-parsorbitalis	ctx-lh-parstriangularis	ctx-lh-pericalcarine	ctx-lh-postcentral	ctx-lh-posteriorcingulate	ctx-lh-precentral	ctx-lh-precuneus	ctx-lh-rostralanteriorcingulate	ctx-lh-rostralmiddlefrontal	ctx-lh-superiorfrontal	ctx-lh-superiorparietal	ctx-lh-superiortemporal	ctx-lh-supramarginal	ctx-lh-frontalpole	ctx-lh-temporalpole	ctx-lh-transversetemporal	ctx-lh-insula	ctx-rh-bankssts	ctx-rh-caudalanteriorcingulate	ctx-rh-caudalmiddlefrontal	ctx-rh-cuneus	ctx-rh-entorhinal	ctx-rh-fusiform	ctx-rh-inferiorparietal	ctx-rh-inferiortemporal	ctx-rh-isthmuscingulate	ctx-rh-lateraloccipital	ctx-rh-lateralorbitofrontal	ctx-rh-lingual	ctx-rh-medialorbitofrontal	ctx-rh-middletemporal	ctx-rh-parahippocampal	ctx-rh-paracentral	ctx-rh-parsopercularis	ctx-rh-parsorbitalis	ctx-rh-parstriangularis	ctx-rh-pericalcarine	ctx-rh-postcentral	ctx-rh-posteriorcingulate	ctx-rh-precentral	ctx-rh-precuneus	ctx-rh-rostralanteriorcingulate	ctx-rh-rostralmiddlefrontal	ctx-rh-superiorfrontal	ctx-rh-superiorparietal	ctx-rh-superiortemporal	ctx-rh-supramarginal	ctx-rh-frontalpole	ctx-rh-temporalpole	ctx-rh-transversetemporal	ctx-rh-insula
0	30	22.71411895751953	30.990182876586914	21.102615356445312	26.483654022216797	-23.734254837036133	95.1808853149414	63.050289154052734	49.46330261230469	201.84320068359375	64.2830581665039	54.39988327026367	35.13524627685547	-30.973163604736328	-297.0970764160156	25.011234283447266	15.61112117767334	29.27542495727539	16.775766372680664	75.38636016845703	0.20198550820350647	154.71347045898438	-11.667025566101074	65.7751693725586	-74.36480712890625	17.604854583740234	469.3375549316406	24.710142135620117	24.482162475585938	102.66400146484375	33.276649475097656	23.004793167114258	28.341777801513672	-2.2282774448394775	50.082969665527344	10.252615928649902	-42.41118240356445	32.28990173339844	8.507503509521484	21.574302673339844	-3.334543466567993	70.23809051513672	-5.9736127853393555	2.0323684215545654	6.32025146484375	-25.28622055053711	19.314861297607422	-74.58306884765625	-22.374204635620117	9.429583549499512	-3.5108511447906494	52.33564376831055	-25.521570205688477	-7.895210266113281	32.829124450683594	-0.46955612301826477	31.43852996826172	9.22658634185791	13.105962753295898	0.32718634605407715	-22.35782241821289	17.53251838684082	43.60329818725586	-47.5641975402832	-9.551642417907715	0.6968627572059631	4.770867824554443	64.71554565429688	10.248861312866211	38.049339294433594	-24.397329330444336	74.35780334472656	-3.6060283184051514	17.12574005126953	138.96527099609375	-35.247135162353516	26.097501754760742	68.0266342163086	3.8980767726898193	75.15451049804688	32.07644271850586	23.87196922302246	-18.31786346435547	14.136086463928223	109.56066131591797	23.975738525390625	-5.931878566741943	16.94094467163086	-25.79270362854004	11.767470359802246	35.69378662109375	14.276996612548828	23.816654205322266	19.413257598876953	7.969368934631348	48.982421875	25.247417449951172	8.058377265930176	22.78203773498535	72.35191345214844	73.9343032836914
30	60	1263.33984375	2045.452880859375	4300.0908203125	4723.71630859375	5267.0625	5318.44580078125	3711.676025390625	4311.88525390625	4088.582763671875	5235.4775390625	645.8221435546875	5307.5849609375	3620.4248046875	14910.654296875	1318.72216796875	2676.098876953125	4163.43798828125	4875.17431640625	6015.4208984375	5938.98876953125	4346.85595703125	3929.785888671875	5606.0048828125	4220.86865234375	4778.412109375	15795.7353515625	411.397216796875	718.6815185546875	4477.4521484375	3787.326904296875	2536.810546875	840.0958251953125	6713.8369140625	8923.3564453125	6080.69384765625	5430.81787109375	5766.484375	4757.13427734375	6050.8125	5688.470703125	5323.17529296875	7055.93408203125	6574.6875	5763.20947265625	7579.59716796875	5198.6455078125	5762.8447265625	5899.513671875	6935.6650390625	7013.95263671875	7523.7275390625	10187.5869140625	6020.68896484375	7791.650390625	7989.37939453125	6690.86962890625	6551.64501953125	7750.68408203125	6295.869140625	6563.86083984375	6274.525390625	7531.57958984375	8181.2568359375	4003.5771484375	10318.4873046875	9112.0478515625	7449.77587890625	6864.53857421875	6792.47607421875	5667.06982421875	3359.299072265625	5333.67041015625	5796.9150390625	5563.1865234375	6081.751953125	6973.29248046875	7855.01025390625	6195.85009765625	7787.44384765625	4907.6767578125	5287.560546875	6543.66015625	6364.91943359375	6792.89501953125	7389.951171875	8696.705078125	6798.755859375	6338.03759765625	6476.060546875	6413.22802734375	7764.453125	7619.19775390625	6456.015625	6653.9873046875	5970.01806640625	6628.96484375	6390.1904296875	9772.6162109375	12819.8779296875	7406.9423828125
60	90	5458.93798828125	10960.640625	18745.462890625	21240.779296875	25463.369140625	26072.46484375	14707.3837890625	15641.091796875	17228.765625	18315.353515625	2931.924072265625	20690.0625	15388.365234375	50106.15625	5859.3720703125	9852.896484375	19392.716796875	21025.634765625	24538.6015625	28135.14453125	11726.66796875	17407.880859375	17504.71484375	31501.15234375	14911.3369140625	55963.296875	1131.54931640625	2384.705810546875	21590.87109375	14865.2353515625	8044.60986328125	2815.536865234375	27274.025390625	27655.041015625	33617.390625	38414.3359375	17983.1640625	22568.892578125	27608.6328125	23778.009765625	23330.330078125	32925.44140625	32572.169921875	31313.943359375	32018.37109375	23770.07421875	22761.53125	27905.224609375	30660.708984375	32349.60546875	31719.923828125	48961.0703125	29831.126953125	32687.814453125	33620.6328125	30672.8359375	26962.326171875	35886.78515625	29111.318359375	31921.896484375	24008.220703125	30386.693359375	35428.72265625	19024.96484375	44323.27734375	25454.0625	27485.662109375	28668.6640625	29076.17578125	39064.2890625	17795.02734375	21521.943359375	26717.94140625	22468.048828125	27181.3046875	32714.30078125	32131.314453125	30609.236328125	28315.08203125	22828.060546875	20593.19140625	28167.916015625	28099.583984375	29938.44921875	31305.8984375	41149.359375	32760.140625	29841.326171875	29462.00390625	29323.7890625	29281.9609375	33698.21875	28899.109375	30177.248046875	23334.89453125	27768.53125	38875.546875	24072.126953125	45718.83203125	26183.35546875
90	120	10368.4873046875	21325.265625	35469.17578125	40962.28125	50613.80078125	54487.5390625	23918.5234375	26295.64453125	34174.1796875	28394.833984375	5550.19970703125	36423.16796875	30512.73828125	81874.8515625	10846.416015625	19813.193359375	36957.89453125	39392.27734375	45600.14453125	53761.578125	24238.626953125	31017.90234375	34215.84375	51608.48828125	26541.498046875	103740.3515625	1764.67626953125	4107.91552734375	38044.3046875	28526.1171875	11992.8671875	4837.93603515625	57341.8671875	57569.60546875	63273.16015625	73768.5078125	39124.16796875	42723.1953125	51815.703125	45955.66796875	49789.53125	64166.93359375	60064.77734375	60287.0390625	60523.53125	45680.58203125	41904.03515625	58630.16796875	57701.77734375	59798.8125	64141.04296875	96422.0859375	56684.76171875	60070.80078125	61876.375	58010.18359375	52201.0625	66287.5390625	58654.61328125	63760.84765625	46887.01953125	57484.34375	76124.265625	35209.546875	73862.5859375	47767.6015625	56309.78515625	51257.7265625	60840.625	74320.578125	34627.015625	43352.20703125	54727.56640625	42932.3984375	50201.2421875	66304.1328125	60916.44140625	61278.0078125	57498.3515625	43893.73046875	39534.22265625	56839.09765625	52674.3125	60171.75390625	61463.6640625	88092.125	64291.2421875	53331.5234375	56659.4921875	57904.9765625	46189.74609375	64840.56640625	58329.6171875	61330.3125	45084.625	55064.81640625	71506.078125	40149.8359375	89475.0078125	45348.16796875
120	150	14529.568359375	29627.828125	52085.56640625	59001.1640625	70964.734375	81563.671875	33776.078125	36335.6640625	48332.078125	45192.01953125	8014.21240234375	79321.6875	41496.71484375	113367.5703125	15133.755859375	28986.77734375	53880.37109375	55291.9609375	72500.5234375	78501.15625	35857.92578125	49640.12890625	45319.26171875	50923.38671875	41578.5546875	145895.578125	2023.091796875	5319.6630859375	59763.53515625	42164.078125	14077.033203125	6623.2744140625	80087.6875	71541.125	91388.421875	104525.3828125	49991.296875	63807.3828125	77516.078125	66308.5546875	69657.2109375	91233.6484375	84387.4921875	86754.1171875	83621.453125	69263.375	57950.11328125	83071.0	82913.34375	89320.8984375	89135.5078125	136425.8125	82969.6875	88181.1171875	89818.6015625	86314.8125	68237.1015625	97009.921875	84874.90625	90891.09375	68128.71875	84625.5	105403.8515625	49473.25390625	102785.296875	63443.453125	75424.625	70242.6875	86122.578125	104220.6875	49775.72265625	61470.73046875	79065.671875	65574.609375	66336.59375	96820.0859375	84782.0625	85780.21875	83188.453125	65588.3359375	50871.43359375	83971.484375	78838.8125	90006.9140625	88397.390625	122590.5546875	90545.53125	76223.6171875	80648.6171875	84589.953125	65920.140625	93311.359375	81984.8671875	91470.609375	64634.296875	79129.015625	102967.2734375	58547.19921875	110631.921875	62992.27734375
150	180	16753.283203125	33399.2734375	59303.609375	67806.125	79053.890625	95017.921875	35734.90234375	41216.74609375	51189.01171875	56014.71875	8000.34521484375	82473.4609375	46335.828125	131374.046875	16887.0078125	32187.189453125	60793.15234375	62587.45703125	81037.484375	88801.84375	37328.2421875	50310.8515625	54731.45703125	54685.19140625	46886.9375	148632.890625	2128.100341796875	5836.8349609375	66521.734375	46857.734375	12372.1640625	7087.75341796875	89130.3359375	80455.390625	101560.5859375	119813.4140625	55819.66796875	73181.7578125	86853.9453125	76624.6328125	77412.109375	103742.328125	96269.0234375	98638.5859375	94633.1015625	76207.453125	58838.16015625	94406.96875	93045.8828125	96444.28125	103198.8828125	154668.921875	91351.078125	92785.8828125	102139.6171875	94775.28125	78225.609375	108235.203125	94376.9140625	104663.96875	74203.2109375	95423.609375	116194.7734375	56024.2890625	105911.625	69828.8984375	83101.84375	80294.6484375	95677.46875	117451.1953125	53729.88671875	70393.3046875	92679.4453125	73641.6796875	82681.4296875	108752.5859375	91586.375	96023.3671875	92058.8359375	76855.1640625	56378.98046875	97507.8828125	84414.7734375	97589.484375	100105.3515625	137156.328125	101363.328125	86155.375	92888.0078125	92367.0234375	62957.45703125	106317.78125	91449.0234375	102965.8046875	72655.1875	88525.15625	118585.78125	57878.22265625	129039.7890625	69533.6796875
180	240	18139.654296875	35455.27734375	61155.67578125	70188.8984375	85040.78125	97094.0234375	40908.85546875	41385.046875	54770.95703125	54771.49609375	6568.46875	81544.453125	49019.12890625	119883.1015625	17874.0	32358.36328125	63386.9765625	68844.796875	84768.6171875	94245.015625	40390.37890625	51975.30859375	54537.58203125	62664.4140625	47868.1875	134270.71875	2007.8363037109375	6105.83544921875	65389.3203125	49202.85546875	10595.1142578125	7281.83740234375	93564.546875	82203.1953125	105384.8046875	127271.1640625	56583.390625	75949.171875	92707.390625	79282.1953125	73031.8984375	105063.0703125	99635.5	103673.8046875	98697.65625	79635.7421875	60961.6171875	96166.1328125	95656.890625	96830.9140625	105927.6484375	147464.953125	96081.7265625	94987.8515625	105145.4609375	97017.3515625	76618.4453125	112366.5234375	99172.171875	106817.90625	77811.1953125	97217.453125	116707.921875	61327.26171875	109906.65625	73242.9140625	84287.0390625	78372.640625	100841.8125	121486.3359375	60281.0078125	73134.171875	97693.59375	76024.6796875	83589.7578125	110702.3828125	98101.703125	97056.2109375	96847.5859375	80336.4296875	62442.6953125	97511.03125	88825.0	100920.3359375	102356.5546875	143532.046875	106541.109375	88712.296875	95081.1328125	96446.640625	73879.03125	109782.78125	95952.765625	105963.75	77305.9375	93631.390625	115419.203125	57758.7265625	114847.453125	70020.7265625
240	300	19233.041015625	34856.11328125	61052.57421875	69486.125	85985.140625	97613.6796875	44229.79296875	41359.19921875	51182.140625	56210.48046875	5415.32568359375	84765.890625	51499.58984375	97631.890625	18891.958984375	33503.28515625	63311.71484375	69330.84375	85614.2265625	93934.3828125	42954.6796875	50485.046875	56939.203125	62057.55859375	51431.72265625	112904.9921875	1874.954345703125	6395.2001953125	66900.125	49573.37109375	9402.8623046875	7450.00341796875	90128.5546875	80348.796875	102514.4609375	114939.578125	54863.5	75565.25	90054.265625	78834.5859375	78659.390625	100108.09375	96368.8984375	96270.9140625	93830.375	79147.2890625	65370.84375	91370.4140625	92791.1328125	91508.734375	99926.5546875	146842.171875	93958.078125	92402.671875	103897.4140625	94215.859375	79011.59375	109717.203125	95631.6953125	102872.3203125	76925.609375	94311.0546875	112211.375	64192.796875	106189.140625	70953.359375	84707.4453125	82906.9765625	98433.6015625	117963.71875	59504.58203125	73072.1171875	94567.890625	75810.8828125	80518.671875	106221.7109375	94531.0703125	91271.265625	97171.359375	80112.53125	64737.3828125	97068.296875	84564.4140625	95038.65625	98548.4296875	133977.265625	101883.765625	84994.359375	94040.4765625	92801.2890625	65130.6484375	108029.0859375	94628.375	103453.359375	75691.03125	90818.859375	116637.0546875	58551.1171875	109092.2265625	70333.1953125
300	360	19583.962890625	34052.1796875	58543.625	69315.6171875	82757.265625	93441.421875	45245.87109375	42473.12890625	52906.3125	57059.13671875	4836.166015625	82880.9140625	46198.07421875	71542.0625	19216.185546875	33086.703125	60443.33984375	68142.5546875	82440.1640625	90601.59375	39215.09375	49010.5859375	54719.83203125	68818.3671875	49009.31640625	82572.6953125	1739.8187255859375	6539.203125	60030.8671875	47468.2890625	8032.05859375	7508.529296875	85651.265625	79439.9296875	94703.5390625	112090.1796875	55256.703125	70900.0390625	86050.796875	75407.59375	72818.2734375	93231.6796875	90636.390625	87340.6796875	92321.9375	76909.9453125	61407.109375	87604.03125	87550.3125	89493.6953125	94941.2890625	127348.640625	89094.78125	89502.28125	95726.921875	87362.7578125	73486.125	102812.265625	91147.984375	96854.296875	73451.59375	88638.5546875	113074.6953125	61769.83984375	89355.2109375	70975.2734375	80467.4765625	71791.8046875	91261.9921875	109532.890625	54558.95703125	68704.9375	90098.5390625	74160.5	76589.59375	99688.4609375	88651.09375	84620.828125	89768.046875	76631.6015625	64905.2734375	92689.3046875	80779.7734375	91888.09375	92390.484375	119274.65625	96200.2265625	81924.1875	88379.46875	88893.671875	68244.21875	101967.3671875	89303.3046875	98255.03125	72194.296875	87111.7265625	111093.0	58319.88671875	110437.90625	65450.67578125
360	480	20334.201171875	34032.5078125	53780.1484375	65403.03515625	76157.8671875	83923.34375	45820.91796875	40024.2890625	44159.03515625	57863.8203125	2867.314453125	67321.1484375	48091.8359375	54676.09765625	20096.640625	33014.17578125	55125.34375	62109.30078125	75709.015625	81752.375	44422.53125	47273.375	56691.43359375	65971.0	45846.52734375	77391.984375	1740.6619873046875	6666.5322265625	51819.17578125	44482.91796875	6437.056640625	7656.96728515625	75998.7890625	70207.4765625	83724.921875	100581.2265625	54468.0703125	65691.3046875	77140.4140625	70159.578125	66155.4453125	81550.46875	82994.1171875	77920.9140625	82677.9140625	69725.875	56801.6875	80524.5703125	78676.4765625	79672.4765625	83012.671875	105979.5859375	79938.953125	79221.828125	83901.6796875	78049.3828125	66354.484375	91517.7890625	81372.2578125	84767.609375	67457.75	79531.8984375	100038.6328125	59760.96484375	80706.6640625	63383.9921875	73625.7109375	67095.2578125	81290.3515625	95100.4296875	53075.9375	63993.70703125	81402.359375	67794.453125	65520.2578125	88312.328125	80819.3203125	74154.4296875	80839.9609375	70410.5703125	54809.88671875	81427.453125	72600.6171875	79621.875	84445.875	101570.9921875	84374.34375	71866.1328125	78345.4296875	76965.0078125	62470.92578125	90562.0	80294.734375	86682.2109375	65308.73046875	78209.125	96578.34375	56332.84765625	84901.296875	63196.12890625
480	600	20859.736328125	31939.216796875	47160.60546875	58796.4453125	64228.62109375	71991.828125	45280.26171875	37240.2265625	40905.36328125	51551.87890625	1371.3382568359375	69368.703125	44586.77734375	37824.484375	20382.10546875	31761.427734375	48474.02734375	57480.52734375	66565.6640625	70943.0546875	41529.390625	40885.3984375	54411.57421875	50530.5	44038.79296875	60789.32421875	1509.668212890625	6786.35400390625	41698.72265625	41557.3046875	4903.0615234375	7892.548828125	64257.70703125	59795.48828125	70462.828125	81610.4921875	49475.4453125	55729.04296875	65013.17578125	61444.94921875	57744.33203125	67169.1640625	69971.03125	64497.484375	70847.0390625	61217.00390625	54250.29296875	67780.046875	66332.5078125	67195.0	71795.1640625	84453.2734375	67502.3515625	64277.6171875	70033.7890625	65371.07421875	60393.97265625	77537.890625	69171.28125	72067.953125	58823.62890625	67264.1171875	84836.2578125	58431.5390625	65969.09375	57566.3828125	63194.1484375	59710.63671875	67472.8125	80342.8046875	52149.0234375	55705.1171875	69722.1640625	60720.5234375	60803.76171875	74999.703125	68328.3515625	62860.765625	70927.03125	61350.703125	50086.25390625	70262.1171875	61591.359375	66474.28125	70400.8828125	78761.6875	70057.125	62408.30078125	65946.171875	66492.8515625	56951.49609375	77787.140625	68420.9609375	73737.1015625	58168.68359375	67318.9609375	83877.9609375	54073.8359375	63809.9921875	56252.1484375
600	900	21248.810546875	30111.509765625	37010.3125	48848.25	50169.5625	56550.3828125	40774.34375	32584.603515625	34066.5859375	44231.83984375	-33.83393478393555	49325.06640625	39298.421875	26503.099609375	20738.376953125	29639.005859375	38346.3046875	47881.70703125	51271.44140625	56099.12109375	37399.6640625	33965.58203125	45842.30078125	53208.6484375	38389.38671875	37543.3203125	1127.4228515625	6994.2255859375	32485.603515625	35958.875	3833.5	8068.35693359375	48725.0546875	48665.27734375	54397.828125	61405.0546875	42364.58984375	45482.03515625	49704.63671875	49377.39453125	46212.92578125	50480.4453125	54858.90625	47711.37890625	56037.34765625	48370.59765625	44729.69140625	51759.51953125	51224.2578125	50303.72265625	54378.41015625	58077.84375	52212.015625	51310.34765625	52087.1875	49326.484375	46731.58984375	59736.02734375	53666.46875	54436.484375	47389.66015625	51467.1640625	68504.7265625	49522.453125	48267.5078125	47241.2265625	49343.2578125	47087.4921875	52786.2578125	59325.6328125	44338.0859375	44579.25390625	54794.6953125	48730.859375	45173.3515625	57007.88671875	54562.19140625	48300.84765625	56163.140625	49131.09375	40270.59375	52153.171875	47246.16015625	51463.1328125	54030.10546875	56886.0	52975.67578125	48352.15625	50974.5546875	50545.62109375	45499.0078125	60149.203125	53104.9296875	56149.76171875	46310.875	51579.625	65739.21875	48087.85546875	47006.27734375	46016.44140625
900	1200	21558.1640625	27309.103515625	27308.556640625	37876.91015625	35209.78515625	40168.90625	36109.6015625	27187.6796875	25195.3515625	37544.8828125	-877.2962646484375	38982.8984375	33544.87109375	21735.404296875	20942.314453125	27332.419921875	27955.423828125	37463.765625	36147.046875	39347.25390625	34061.08203125	26611.966796875	38437.8203125	36417.1640625	32960.890625	22941.896484375	870.6421508789062	7365.546875	22908.12890625	30530.09375	3506.18603515625	8427.99609375	36698.59375	35005.609375	37773.16015625	43961.171875	35231.7109375	34193.1796875	36541.0390625	37583.01171875	33952.875	36619.328125	41228.734375	35212.27734375	41716.75	36378.6640625	35192.61328125	36681.7734375	37633.12109375	37338.4765625	40115.19921875	36949.33203125	38137.1328125	36161.6875	37028.88671875	35267.41796875	34545.015625	43684.44921875	39028.3359375	38724.796875	35530.65234375	37773.390625	52598.3046875	40006.86328125	33111.3125	36971.74609375	35774.21875	35418.68359375	37898.03125	44263.51171875	37072.546875	34708.53125	40460.94140625	37655.37109375	35895.8359375	42334.9296875	40202.1171875	35329.4140625	42188.71875	36983.8515625	30709.21484375	36106.88671875	34496.25	38333.0546875	40460.36328125	38294.0234375	36882.53515625	38015.66015625	37107.3203125	36803.328125	33978.46875	44499.42578125	39284.6953125	40275.88671875	35136.40625	38239.60546875	48965.1953125	38710.0625	34553.421875	35545.80078125
1200	1500	21200.5234375	25309.138671875	21125.212890625	29606.865234375	26918.3125	30963.5234375	31563.302734375	22514.912109375	20729.3359375	30631.341796875	-338.892822265625	23324.23828125	29443.703125	8245.802734375	20676.90625	25357.68359375	21733.916015625	29482.70703125	26142.806640625	30055.771484375	31434.86328125	21159.6171875	30492.845703125	29565.8359375	28929.201171875	11796.9814453125	772.06689453125	7792.99853515625	16806.4609375	27152.072265625	3567.79052734375	8825.1416015625	28742.587890625	27815.658203125	29340.603515625	34451.91015625	29081.212890625	28555.494140625	28519.107421875	30907.162109375	26402.646484375	29823.091796875	32463.83203125	29569.86328125	34591.296875	29006.67578125	25952.287109375	27601.44140625	29744.03515625	29640.66796875	32075.099609375	29319.953125	29340.568359375	28003.587890625	28433.654296875	28089.78125	27904.376953125	34937.62109375	30765.654296875	30297.337890625	28313.662109375	29783.65625	44922.578125	33993.71484375	29642.3203125	30843.544921875	27895.78125	30226.306640625	30387.4765625	34460.29296875	31606.744140625	28784.373046875	31939.5546875	31104.41015625	29010.025390625	34123.125	32738.328125	29191.912109375	32630.087890625	29508.119140625	24794.978515625	27685.376953125	27594.234375	31485.935546875	32766.955078125	31002.744140625	28278.611328125	30242.623046875	29398.279296875	29056.119140625	27338.900390625	35925.86328125	30661.673828125	30063.115234375	28336.455078125	30661.12109375	42125.66015625	30811.671875	27854.0546875	28605.810546875
1500	1800	20724.267578125	23323.373046875	16851.908203125	23930.39453125	19383.76171875	23707.8984375	27294.783203125	19357.37109375	17317.26953125	23960.283203125	500.2010192871094	18566.466796875	25497.55078125	2411.76123046875	20166.263671875	23475.1328125	17539.73828125	23139.6171875	19788.595703125	22906.375	29347.759765625	17752.421875	26528.87109375	20152.5234375	24536.123046875	4279.97412109375	582.296142578125	8072.26318359375	14267.900390625	23822.818359375	3656.19482421875	9347.732421875	25111.71875	23712.359375	23615.66796875	29021.640625	25420.248046875	25228.859375	23392.044921875	26077.359375	21910.01171875	24855.71875	28126.48046875	24933.107421875	26738.552734375	24355.216796875	22194.03125	22143.904296875	25166.619140625	25946.169921875	26898.892578125	23275.16796875	24369.68359375	23424.154296875	22431.74609375	23745.958984375	23142.634765625	29161.2265625	24904.88671875	24706.91015625	23909.7421875	24057.44921875	38550.5234375	27987.626953125	25127.61328125	25559.822265625	24259.41015625	24514.982421875	24407.703125	29371.02734375	25646.31640625	25298.197265625	26753.333984375	26819.568359375	24026.13671875	29820.765625	28295.35546875	25849.404296875	28504.888671875	24746.54296875	20800.810546875	22321.21875	23522.537109375	25492.9453125	27385.6640625	25844.90234375	23632.43359375	24486.232421875	23850.951171875	24304.318359375	22853.27734375	29836.849609375	25693.62109375	24526.240234375	23958.533203125	25252.265625	34071.9921875	26231.193359375	24693.615234375	23682.115234375
1800	2100	19647.583984375	20892.97265625	13785.298828125	19351.599609375	15751.49609375	18671.751953125	24922.552734375	16185.3544921875	16007.0859375	19315.822265625	654.6073608398438	10946.0673828125	21838.140625	111.48957824707031	19150.265625	21085.869140625	14080.056640625	18880.9453125	14581.236328125	17509.3515625	25708.79296875	15801.0966796875	20682.8515625	15907.759765625	21391.09765625	-196.64439392089844	585.8727416992188	8177.54345703125	10751.2939453125	21961.451171875	3790.592529296875	9531.59765625	21538.375	19648.056640625	20036.158203125	25099.8203125	19960.564453125	22649.529296875	20171.935546875	23266.728515625	18152.0390625	22425.275390625	23499.244140625	22798.41015625	24955.828125	21321.353515625	17719.474609375	18450.6875	21211.19921875	20972.505859375	22607.451171875	20991.833984375	20356.701171875	19943.689453125	19274.69140625	20774.599609375	20343.236328125	25132.7109375	21072.947265625	20881.076171875	20535.568359375	20753.8125	34274.33203125	24959.1171875	21370.033203125	21460.294921875	21704.787109375	20507.841796875	21407.23046875	24670.1953125	22221.6796875	22411.333984375	22629.31640625	23432.1015625	20151.4453125	25613.72265625	24236.64453125	23570.388671875	23869.7421875	21240.4140625	17084.044921875	17345.7109375	20834.056640625	22952.3828125	23593.791015625	21437.677734375	19018.837890625	22456.462890625	19904.7578125	20373.099609375	17453.46875	26402.60546875	21591.732421875	20233.6328125	20508.21484375	21559.224609375	29803.4453125	22796.478515625	22165.423828125	20618.869140625
2100	2400	18768.361328125	18467.87890625	11623.306640625	15609.4423828125	12231.916015625	15786.6240234375	21367.92578125	13613.0654296875	11973.142578125	17022.474609375	756.3861694335938	5423.8759765625	20503.43359375	24.916946411132812	18189.822265625	19384.412109375	12048.341796875	15325.52734375	12185.029296875	14802.62109375	22319.931640625	12597.3798828125	17602.23828125	6453.24609375	18004.0234375	-3362.407958984375	476.37677001953125	8216.2802734375	9246.5869140625	18982.017578125	3836.370361328125	9677.1416015625	18840.556640625	17473.0546875	16561.9453125	21847.435546875	18615.55859375	20802.388671875	17489.669921875	20735.931640625	16659.158203125	19604.6015625	21755.90234375	20372.904296875	21227.697265625	18477.359375	15482.154296875	15670.1201171875	19139.322265625	20297.701171875	20804.28515625	17669.24609375	16741.92578125	16976.015625	16231.4052734375	17747.95703125	17395.44140625	21320.70703125	18363.576171875	18351.94921875	17746.279296875	18877.341796875	31354.267578125	22651.388671875	20087.14453125	18722.455078125	19253.35546875	18222.94140625	17816.01953125	21964.826171875	21208.177734375	21103.8828125	20162.060546875	20445.150390625	16315.50390625	22897.3046875	22101.607421875	20973.30859375	20660.796875	18777.810546875	14336.1591796875	14236.9990234375	18721.701171875	21078.478515625	20702.64453125	19836.990234375	16149.9365234375	18599.42578125	17646.740234375	18251.9765625	14160.3701171875	22628.251953125	18720.791015625	17308.33203125	18155.4453125	19317.677734375	27626.814453125	17583.5625	19961.40234375	18046.40625
2400	2700	17632.541015625	17068.076171875	10075.4580078125	13141.8505859375	10111.89453125	13660.939453125	20038.80859375	11585.78515625	11468.392578125	14439.0419921875	1956.69091796875	4974.01171875	15653.6943359375	-8434.2353515625	17125.525390625	17540.734375	10412.5595703125	12208.1923828125	10503.7626953125	12938.9052734375	19128.16015625	10821.8466796875	14414.08203125	5157.5302734375	16882.154296875	-2945.042236328125	450.1934509277344	8194.224609375	8288.12890625	16659.484375	3924.85009765625	9712.107421875	17025.43359375	15358.130859375	14393.556640625	18376.39453125	16724.55859375	18180.646484375	15068.798828125	18821.224609375	14657.1640625	17461.64453125	20248.287109375	18587.603515625	19076.4375	16639.716796875	15248.021484375	12802.0078125	17580.296875	18384.96875	18931.486328125	16281.794921875	14644.91015625	17548.439453125	14449.6220703125	16028.04296875	15438.0263671875	19136.154296875	15689.4091796875	16308.8173828125	15581.154296875	16849.88671875	27903.703125	19451.361328125	20226.552734375	16175.294921875	17529.90625	16251.9912109375	16443.95703125	20628.130859375	17211.83203125	19313.203125	18025.71875	19139.4375	14726.1015625	20276.36328125	19764.4609375	19348.978515625	18577.744140625	16252.2783203125	13644.0634765625	12981.08984375	18406.50390625	18465.22265625	18700.41015625	17537.44921875	14778.8017578125	16212.2568359375	15218.421875	15809.6875	14034.556640625	20230.4921875	15803.5	15006.75	16011.61328125	16848.876953125	25162.232421875	15589.9287109375	18570.880859375	15309.916015625
