frame_start	frame_end	parasubiculum	HATA	fimbria	hippocampal_fissure	HP_tail	presubiculum-head	presubiculum-body	subiculum-head	subiculum-body	CA1-head	CA1-body	CA3-head	CA3-body	CA4-head	CA4-body	GC-ML-DG-head	GC-ML-DG-body	molecular_layer_HP-head	molecular_layer_HP-body	Lateral-nucleus	Basal-nucleus	Central-nucleus	Medial-nucleus	Cortical-nucleus	Accessory-Basal-nucleus	Corticoamygdaloid-transitio	Anterior-amygdaloid-area-AAA	Paralaminar-nucleus
0	30	7.37634	14.77139	12.66173	11.23035	18.29405	12.27109	14.67992	25.26868	9.43668	18.39528	16.05284	8.28518	8.80824	15.28348	10.31487	13.64481	10.37856	15.94486	11.47269	35.57465	57.9683	5.33568	3.9331	5.20793	13.48843	31.8913	283.82794	7.53201
30	60	4743.60588	3580.03087	3797.50388	3411.51027	3462.40191	3464.62123	4084.57179	3076.82796	3391.83966	3076.2417	2795.50429	3782.43396	3909.72161	2785.209	4154.0819	3051.05719	3865.35349	2830.10393	3605.39399	2962.77977	4840.54229	4175.88863	3255.3395	2885.43708	4378.15855	4807.01059	7927.71235	3823.54021
60	90	16221.9116	14286.24086	15275.03712	14444.1663	12908.1102	16780.05477	14359.22835	15896.87121	13898.22159	14025.14527	10740.84445	16169.264	13786.77889	15958.74432	14678.96707	15109.02718	14339.11931	15516.61242	13349.64991	12140.73381	14965.57446	12845.9264	15045.85	14566.50906	15922.85195	16676.80578	23086.56192	13291.00361
90	120	23669.5832	23567.98445	25927.33512	26050.4726	25788.06026	25707.42262	29997.36162	24866.95772	27153.58245	23436.79525	21769.1688	30995.16342	23530.26298	26537.37644	26804.50303	24602.33969	26671.63205	25224.20005	25676.44937	25814.21224	29169.65017	25232.71797	23774.16367	23595.74112	25947.67046	23479.24848	33616.89078	28129.08908
120	150	42954.28933	40075.54791	41079.86951	38557.34621	35584.01564	45070.48754	38373.61912	37265.18844	38795.97016	39243.70061	32399.71753	46143.87086	37457.98443	42000.15105	41545.70043	40563.00021	40834.92978	42184.03332	38181.88805	35233.97431	38713.69952	38108.95446	36575.38203	37661.05735	39718.17709	34971.60271	39510.02555	38577.61019
150	180	35406.06295	37779.69207	44443.82195	41570.10463	40660.5413	41690.3302	42533.20093	42369.50175	43160.09054	39058.45212	33715.37169	46290.54139	39657.93042	43676.13674	44108.97761	40808.08256	43432.19964	41842.13114	40737.63561	42219.38114	44583.69308	45976.62701	38066.42344	37945.79776	42420.6051	36677.80384	40200.41945	42152.47298
180	240	37700.64408	38139.88573	44165.54467	43141.43404	40962.63606	47374.96937	41714.3496	46465.01025	43666.42367	40596.70033	37115.61687	46668.41199	41501.13216	45387.07802	44468.74906	44000.52721	43694.76097	45087.0152	41953.13365	42407.93348	44296.66826	42481.51875	39982.94063	40608.30469	44477.16642	37788.18726	42752.71284	41992.41325
240	300	37415.28011	39676.2893	44051.408	41195.59728	40148.54106	46110.36744	41875.78324	46194.18474	43896.66613	41235.15811	36467.95346	45485.02699	38646.66381	46255.16409	42294.72142	43491.63102	42307.97188	45203.00658	40687.60941	44249.27692	43928.42705	43694.41429	41872.65391	43419.09499	45013.49702	39246.91113	43327.44605	41618.80431
300	360	36996.75015	38457.35352	40765.19124	42689.40621	37611.99876	44802.15879	40426.50827	43553.10859	44486.67093	40114.24555	38723.32659	40606.04702	37970.55326	44287.21818	42534.61826	42821.59611	42105.49198	43289.9623	41174.91504	43992.02055	42868.15901	38601.11842	39126.48359	40848.61346	40816.6119	36352.24019	38839.08805	44048.69368
360	480	34526.97894	35774.84377	40586.68988	40165.64029	36527.72839	44581.46385	36369.27001	43897.92238	41459.93035	39174.43071	35661.31071	39718.28886	36736.29034	41793.10899	40315.46248	40052.91331	39929.71836	42793.36745	38605.63283	43914.50174	42300.64838	43458.82768	41290.35938	40890.70472	42434.52272	35462.7497	37485.83129	41994.93321
480	600	29140.85201	32702.75746	37244.65404	36280.78584	33500.17781	39272.93911	34280.81598	39583.3324	37066.37159	35108.43812	31223.97587	36066.33363	32311.90844	39357.13968	35396.33931	37029.15074	35522.57482	38332.53866	34188.36687	41648.50065	39889.8825	39801.01987	38490.66641	39915.74716	39567.78648	33492.19026	34908.43935	36727.65538
600	900	25907.12734	29076.32184	31285.25023	31478.04228	27729.86652	32485.44429	29771.24078	33292.88115	32424.95938	30425.56864	27823.64632	31002.99139	28626.8376	33335.55645	30747.90681	31678.84576	30611.97791	32646.382	29816.35638	34520.28889	34035.87811	32862.46133	32337.41016	32637.71689	34239.39285	28941.65483	31754.33874	31410.24778
900	1200	22611.66684	23932.7331	26344.98542	25494.75379	23171.52622	27584.63633	23964.84946	28607.72132	26207.22438	25211.88776	24426.97175	24801.04596	24159.42229	25913.14985	25416.97908	25501.26471	25472.42495	26713.94893	24994.62681	30061.68973	28797.38334	28608.44286	27512.95312	28101.96422	27311.52663	23243.7753	25575.08298	26403.83987
1200	1500	18139.22981	20906.68656	22936.23865	21167.05074	18885.84364	21814.62821	20641.33735	23560.93573	22496.92042	21293.25937	20827.00071	20638.29857	21235.92021	21478.62253	21240.36972	21507.11158	21457.91564	21815.06794	21161.37435	25129.00303	22589.36076	24272.11334	24658.39336	25130.21387	22759.09903	20024.13773	22847.79255	21475.29915
1500	1800	16546.46815	19444.95569	19841.20069	18060.7466	16903.0069	19750.01419	17375.28192	20430.55259	18709.4908	18280.60415	18605.96521	17935.08487	19251.63719	17695.58404	19040.8897	18103.95771	18892.74243	18689.56711	18540.08588	21537.07284	20305.76154	23045.91981	22445.29688	22082.69922	19760.77972	17367.63178	20091.12421	19261.41192
1800	2100	15399.82091	16092.61727	18852.02027	16375.59923	15216.64462	18230.80547	15891.56023	17514.10753	16573.07327	15890.36344	16997.95119	16359.59312	18380.84142	15794.92566	17185.3928	16286.98636	17231.71007	16609.09656	17112.98265	18833.92745	16437.41786	19285.77818	19335.5957	19368.14817	16707.85263	14637.02453	15991.3877	14888.85346
2100	2400	12720.29497	15737.29532	15488.03803	13807.24476	13438.37622	13809.69581	14643.50852	14981.64281	14484.08203	13442.68895	14667.85506	14054.25783	14944.48383	13474.69706	14057.25921	13379.87046	14240.70207	13525.90118	14357.3822	16079.64123	13786.6077	17250.48044	16988.20508	17179.22825	15163.19907	14167.12919	14732.05128	12457.39722
2400	2700	12121.40534	14353.16584	13622.77962	12303.69185	11532.54666	12749.93834	12378.20449	13208.02291	13022.77268	12288.48545	13179.2361	12898.88548	13953.35977	11903.85905	12890.1558	12433.54323	12919.23053	12323.53017	12922.08514	13982.4847	11841.60951	15172.49646	15726.15547	15969.50422	12152.30324	11413.20419	11659.93497	11731.84694
2700	3000	10559.28653	11611.01438	12838.81049	10970.12301	10283.70938	11591.6368	10926.36777	12615.10186	11935.47117	11034.76206	12791.54623	11158.47569	14015.00941	9964.49827	12214.6671	10831.86243	12093.49483	10841.32082	12175.33101	13398.71356	11163.71141	13744.0906	14114.5584	13914.69971	12049.16638	11156.68155	10199.9805	9956.84401
3000	3300	9644.60067	12207.51994	10935.1617	10470.45612	10519.68356	10587.24551	9757.47151	10627.11446	10393.56035	11047.6256	11348.28173	11934.64409	11806.33968	10101.53153	10481.93964	10622.9478	10406.78742	10779.8603	10614.74439	12479.56216	9771.29364	13620.27782	12841.39121	12816.05398	10759.06935	9616.19211	9556.36388	9632.4133
3300	3600	8837.0925	11030.69505	9609.36114	9674.51361	9433.76379	8077.3037	9493.07652	9265.98902	10963.11988	9076.56422	11047.56306	9956.55289	11162.91144	8320.05476	10607.75818	8425.92526	10326.50981	8350.68869	10556.9183	10711.84948	9200.21043	10482.49643	11094.74863	10934.50173	10912.18809	10428.15163	8613.62322	8422.40244
3600	3900	8575.3969	10481.27236	10168.32955	8319.07907	8254.83319	8892.016	9010.96119	8794.35295	9016.45986	9125.12865	10553.31617	9029.71715	11897.67418	7629.28975	9749.46935	8207.55588	9738.25142	8450.17802	9957.29939	10234.12132	8660.2868	9154.77709	9935.47969	10137.45756	8660.68601	8755.55455	9124.48328	8376.6556
3900	4200	8137.02356	8584.58543	9689.59825	8570.32613	7884.11061	9160.7183	8325.42352	8198.21519	8770.62867	8594.99779	9148.99172	9541.51384	9745.03872	8382.4777	9355.03431	9299.35118	9189.2289	8269.864	9023.73571	8866.88	7457.79614	9587.73172	9401.81035	9566.88508	8016.3491	7949.63413	8526.00545	6281.25979
4200	4500	7416.80678	7622.52416	8880.58273	8105.91305	8338.32574	7703.54119	7084.54672	8478.5509	7442.28433	8437.02167	8276.86035	8584.95559	9381.16959	8749.16337	7978.8927	8381.00448	7986.08781	8494.5437	7808.50927	10531.21986	7617.65424	10931.318	9265.38096	9423.69252	8664.12163	7291.12118	7342.94042	6376.94502
4500	4800	6607.64977	6076.33291	7623.08331	7050.31728	5868.00245	8672.38794	6987.04517	7635.76532	6922.86754	6834.56018	9636.35101	7826.62879	9577.26827	6908.62134	7789.87049	7245.72479	7685.98142	7212.95656	8160.09912	8850.75252	7240.10781	8680.09814	8083.70176	7175.49496	6914.64088	6586.49032	7945.66995	5781.38775
4800	5100	6778.81902	8294.0302	7231.80614	6874.60838	7716.6313	7100.28514	7168.34221	6970.8672	6945.78679	7467.66697	6869.25341	7364.75879	7249.70912	6794.75738	6611.6267	6960.38409	6642.4846	6891.48824	6600.75453	7782.66419	6975.02329	10203.63546	8916.23535	9372.73335	7514.68461	6585.07502	7425.09876	5483.07071
5100	5400	7557.35767	6504.19511	7531.18421	7676.47939	6905.99789	6848.63149	7586.34933	6312.63337	7455.30004	6254.51085	8427.5272	11041.11964	8225.18494	7188.49257	7651.11797	7085.33609	7648.0127	6635.60162	7745.10587	8225.28606	5129.98041	8677.81035	7747.20547	6554.54446	5623.53202	4929.40434	5227.76626	5312.64866
5400	5700	4358.70908	5911.69789	7542.63582	6006.21974	7211.37355	4622.87512	6198.18433	6865.79748	6511.19469	6210.14426	6245.57049	6106.38604	7459.03456	5555.65635	6836.35504	5487.814	6651.78463	5596.35836	6495.72401	9439.96099	7147.82508	6066.90552	5875.62363	5640.61406	7173.99777	6097.27139	6043.82692	5466.03526
5700	6000	4160.76203	5515.1226	7108.42497	6504.38931	6026.85874	4355.80326	6216.50506	5678.24053	6769.13831	5833.418	9204.51008	5425.06776	8157.7423	4844.40907	7465.08942	4973.33012	7325.46553	5437.61618	7712.42168	6872.30988	5704.39883	8957.8267	7322.89707	7886.70312	6726.88964	5357.29939	6860.63483	4353.95698
6000	6300	4437.74335	6348.27793	5388.538	5045.93624	6406.24093	4268.19089	5546.63029	5791.56285	5423.12081	5723.40122	6592.04514	4692.68651	6657.47499	4059.12757	5583.07358	4883.888	5514.06178	4800.13614	5818.84475	6334.99852	6597.12055	5118.31705	5038.48066	4392.01784	6390.9065	6753.31163	4687.04559	7994.51737
6300	6600	4708.57134	6083.4038	5194.69757	4889.4507	4404.97965	6327.94319	5596.00859	6638.87331	5521.67216	4761.83488	5248.32433	4711.16039	5484.56109	4112.16489	4778.94266	4623.53225	5002.13573	4676.52936	5179.08938	6346.99027	7946.51742	8745.17281	11335.42832	13524.86574	10221.85341	7983.58842	6287.67826	6960.6885
6600	6900	7639.60799	3573.73969	5780.18593	5637.45385	6553.44623	5033.04582	4915.63397	4332.84229	6228.13927	6473.09783	8079.16967	5123.84194	6646.61005	5911.30596	6838.6007	6833.75596	6690.17911	5928.14156	6722.98954	5972.09536	6808.29888	3683.2792	4681.24863	3502.89795	4541.2899	4647.74604	3998.27169	6746.6947
6900	7200	3780.49556	6461.92017	6029.75863	4798.50696	6031.30499	3913.78977	4353.67711	5634.17839	4860.18083	5492.13978	5734.04059	5439.25809	5966.3336	4590.45668	4959.86963	4588.54313	5011.38509	5278.98084	4992.50158	6742.11337	4725.4783	6549.52397	6526.55044	7011.66554	5085.30538	5189.97284	3735.30031	6407.99843
