frame_start	frame_end	Left-Cerebral-White-Matter	Left-Cerebellum-White-Matter	Left-Cerebellum-Cortex	Left-Thalamus	Left-Caudate	Left-Putamen	Left-Pallidum	Brain-Stem	Left-Hippocampus	Left-Amygdala	CSF	Left-Accumbens-area	Left-VentralDC	Left-choroid-plexus	Right-Cerebral-White-Matter	Right-Cerebellum-White-Matter	Right-Cerebellum-Cortex	Right-Thalamus	Right-Caudate	Right-Putamen	Right-Pallidum	Right-Hippocampus	Right-Amygdala	Right-Accumbens-area	Right-VentralDC	Right-choroid-plexus	AirCavity	Skull	Vermis	Pons	CSF-ExtraCerebral	Head-ExtraCerebral	ctx-lh-bankssts	ctx-lh-caudalanteriorcingulate	ctx-lh-caudalmiddlefrontal	ctx-lh-cuneus	ctx-lh-entorhinal	ctx-lh-fusiform	ctx-lh-inferiorparietal	ctx-lh-inferiortemporal	ctx-lh-isthmuscingulate	ctx-lh-lateraloccipital	ctx-lh-lateralorbitofrontal	ctx-lh-lingual	ctx-lh-medialorbitofrontal	ctx-lh-middletemporal	ctx-lh-parahippocampal	ctx-lh-paracentral	ctx-lh-parsopercularis	ctx-lh-parsorbitalis	ctx-lh-parstriangularis	ctx-lh-pericalcarine	ctx-lh-postcentral	ctx-lh-posteriorcingulate	ctx-lh-precentral	ctx-lh-precuneus	ctx-lh-rostralanteriorcingulate	ctx-lh-rostralmiddlefrontal	ctx-lh-superiorfrontal	ctx-lh-superiorparietal	ctx-lh-superiortemporal	ctx-lh-supramarginal	ctx-lh-frontalpole	ctx-lh-temporalpole	ctx-lh-transversetemporal	ctx-lh-insula	ctx-rh-bankssts	ctx-rh-caudalanteriorcingulate	ctx-rh-caudalmiddlefrontal	ctx-rh-cuneus	ctx-rh-entorhinal	ctx-rh-fusiform	ctx-rh-inferiorparietal	ctx-rh-inferiortemporal	ctx-rh-isthmuscingulate	ctx-rh-lateraloccipital	ctx-rh-lateralorbitofrontal	ctx-rh-lingual	ctx-rh-medialorbitofrontal	ctx-rh-middletemporal	ctx-rh-parahippocampal	ctx-rh-paracentral	ctx-rh-parsopercularis	ctx-rh-parsorbitalis	ctx-rh-parstriangularis	ctx-rh-pericalcarine	ctx-rh-postcentral	ctx-rh-posteriorcingulate	ctx-rh-precentral	ctx-rh-precuneus	ctx-rh-rostralanteriorcingulate	ctx-rh-rostralmiddlefrontal	ctx-rh-superiorfrontal	ctx-rh-superiorparietal	ctx-rh-superiortemporal	ctx-rh-supramarginal	ctx-rh-frontalpole	ctx-rh-temporalpole	ctx-rh-transversetemporal	ctx-rh-insula
0	30	48.032623291015625	47.271942138671875	61.35845947265625	59.62587356567383	44.825382232666016	52.36357116699219	84.63532257080078	98.70606994628906	83.3537368774414	257.0448913574219	50.65275573730469	34.63228225708008	68.5938949584961	83.62535095214844	58.14680099487305	58.71506118774414	69.778564453125	55.30915069580078	67.7146224975586	55.42802429199219	34.00947570800781	86.65189361572266	89.01068115234375	91.74163055419922	70.70714569091797	60.90690231323242	38.198974609375	47.471885681152344	92.63339233398438	132.38197326660156	61.26421356201172	42.13960647583008	121.86839294433594	68.90975952148438	42.49346923828125	51.473297119140625	99.91976165771484	41.56192398071289	55.085113525390625	43.09809494018555	61.77988052368164	44.12397003173828	86.033203125	33.081787109375	68.83689880371094	43.3012809753418	74.68201446533203	42.40903091430664	54.30194854736328	60.56267547607422	77.10440063476562	37.31067657470703	34.103736877441406	55.10318374633789	40.556217193603516	61.78439712524414	88.00396728515625	48.29854965209961	56.53480529785156	44.288578033447266	95.07275390625	42.060359954833984	35.520660400390625	39.52928161621094	13.262547492980957	96.04379272460938	58.031925201416016	75.77702331542969	67.95233917236328	45.65936279296875	198.570556640625	115.00811767578125	71.62849426269531	43.9702262878418	66.55842590332031	33.968055725097656	113.03205108642578	31.225811004638672	102.68197631835938	66.89605712890625	208.8377227783203	44.26704788208008	89.96016693115234	29.45989990234375	57.42878723144531	30.855932235717773	51.10685348510742	89.83324432373047	54.75496292114258	36.61133575439453	120.10462188720703	46.22140121459961	62.01797103881836	43.005401611328125	82.0419921875	45.54481506347656	9.55302619934082	99.64839172363281	72.53130340576172	104.98233032226562
30	60	5179.20068359375	6135.22216796875	8428.26171875	8013.56298828125	7045.66357421875	8856.6005859375	5735.54541015625	6066.79541015625	7537.91796875	6630.0361328125	4864.64404296875	8233.21875	6715.98583984375	6448.484375	5421.400390625	6125.5185546875	8256.3603515625	7236.9404296875	7149.279296875	8783.810546875	6195.01806640625	6630.23828125	5648.4755859375	8330.7724609375	6961.5390625	6227.951171875	1205.9234619140625	2473.4140625	9687.7548828125	6670.49169921875	7465.2294921875	2002.374267578125	8275.16796875	8252.345703125	8669.072265625	8553.55078125	6029.54736328125	7106.54931640625	7702.89111328125	6784.58642578125	8309.681640625	6324.52099609375	8736.20703125	9004.1552734375	10025.7705078125	7423.21044921875	8155.58349609375	7435.2392578125	9334.4619140625	9070.6484375	9431.5029296875	9324.123046875	7511.05859375	9022.3125	7436.68701171875	8542.1298828125	9253.6259765625	8737.0625	8953.109375	6559.0615234375	7832.17529296875	8082.4658203125	9005.80078125	5248.5244140625	9939.4306640625	8523.7548828125	8094.70458984375	9408.765625	10184.001953125	8283.9130859375	5715.7705078125	7119.13232421875	8187.26025390625	6401.05712890625	9015.986328125	6842.419921875	9874.0673828125	8757.6376953125	9528.716796875	7546.93359375	6500.95458984375	6748.81591796875	10095.4443359375	8802.373046875	10058.4599609375	9183.91015625	7964.794921875	8348.2470703125	8002.4287109375	9107.037109375	8967.8720703125	9339.013671875	9108.802734375	6729.14892578125	8284.1669921875	8247.4775390625	9785.7119140625	6293.4658203125	10832.7353515625	9214.783203125
60	90	16411.138671875	19502.794921875	26311.6640625	25269.56640625	22955.8125	27669.9453125	18824.1875	17577.126953125	19983.662109375	18862.77734375	14356.48046875	24517.0390625	20722.134765625	19658.1875	17034.802734375	19425.0859375	26156.998046875	24120.4140625	24501.990234375	28396.3046875	20340.10546875	18984.69140625	16314.34375	25880.697265625	19257.15625	19096.646484375	3303.16162109375	6863.35791015625	27264.744140625	19485.435546875	20753.1328125	5793.29736328125	24201.359375	23815.390625	26585.70703125	28189.4375	17185.24609375	22309.62109375	24300.466796875	21681.419921875	24400.25390625	21444.376953125	26025.40625	26735.6953125	27424.482421875	22925.75	21526.7890625	23506.822265625	27824.912109375	28294.310546875	28913.5234375	30938.267578125	23155.927734375	25699.75	23950.259765625	27730.884765625	27511.837890625	26497.134765625	26890.09375	21436.953125	23196.59375	25265.755859375	25455.26953125	16802.93359375	29435.29296875	25168.11328125	25989.640625	25415.931640625	29117.55859375	26557.5546875	17676.234375	21181.841796875	25065.966796875	20625.8203125	24920.896484375	22466.583984375	25981.580078125	27139.021484375	25758.724609375	22919.818359375	20088.083984375	20565.32421875	30530.828125	25985.16796875	28678.48828125	29162.6484375	23789.30078125	24202.6875	24792.091796875	27613.048828125	26373.298828125	27705.673828125	26355.76953125	22560.638671875	23428.23828125	24945.333984375	27915.5078125	17113.689453125	28305.173828125	27008.998046875
90	120	27394.076171875	33244.37890625	43976.453125	41090.6640625	37589.45703125	46238.375	31951.525390625	28445.01171875	33890.40234375	29670.501953125	23753.232421875	37516.84765625	31694.92578125	27923.9921875	28179.892578125	31158.2734375	43868.09765625	38419.02734375	42389.6015625	46662.07421875	34984.1015625	30683.85546875	27238.23046875	38203.93359375	30458.3125	30446.40234375	5299.36962890625	11011.3564453125	45872.359375	32293.822265625	33058.82421875	9414.3115234375	37900.0234375	40456.55078125	43790.78515625	46384.55859375	27017.080078125	37968.2421875	40826.3046875	36423.37890625	40786.7109375	36838.73046875	43146.953125	43829.61328125	42504.98828125	38034.21875	34321.91796875	38861.57421875	46114.59375	45407.3203125	44757.30078125	50984.88671875	38008.13671875	43335.046875	39750.04296875	45272.546875	43510.63671875	44427.64453125	44150.46875	35916.21875	37667.96875	41250.99609375	42277.05859375	28087.890625	49213.37109375	39815.1484375	40909.97265625	40336.3203125	46041.30078125	44138.34765625	26929.341796875	36673.3671875	41683.8515625	33910.828125	41425.52734375	38032.59375	42367.7265625	44413.32421875	42389.04296875	38086.44140625	32807.6796875	35539.77734375	47178.66796875	40731.57421875	44093.91796875	49916.62109375	38768.48828125	41216.43359375	41186.02734375	44128.984375	45479.296875	45125.23828125	43992.09765625	37546.4609375	38033.95703125	40930.15625	45456.94921875	30673.36328125	48035.9296875	42842.0625
120	150	36176.59375	43984.9375	57472.1796875	54187.9140625	50118.14453125	63563.40625	41509.46484375	37707.10546875	40883.5234375	37617.06640625	30038.541015625	52048.66796875	42194.39453125	38513.6875	37012.6484375	41541.46484375	56875.7421875	51906.5546875	54792.2109375	61032.6796875	45986.58984375	39049.1015625	33961.02734375	52157.90625	38835.48828125	37169.12890625	6200.7451171875	13729.322265625	58948.2734375	42498.09375	41733.74609375	11936.5029296875	51241.7421875	50837.828125	57064.6953125	60862.06640625	39562.015625	49080.015625	54539.70703125	48662.71875	51027.78515625	48705.16015625	55358.5546875	57106.93359375	55856.76953125	50595.59375	44327.38671875	51205.84375	59144.35546875	59575.19921875	58749.91796875	68922.3828125	50309.4140625	55196.40234375	52496.578125	58436.5234375	56934.51171875	57622.890625	57133.04296875	48502.5859375	49002.6796875	53871.1640625	52726.69921875	36128.69921875	58473.40234375	50630.90625	54196.4140625	52081.28515625	59383.9296875	56591.63671875	35583.19140625	47587.0703125	55260.0859375	44578.75	52760.4296875	49647.9296875	54377.30859375	57253.09375	53135.71484375	49407.92578125	43032.08984375	47750.05859375	60006.98046875	53078.890625	57608.2890625	64042.9296875	51376.53125	54442.23828125	53716.36328125	57560.15234375	56119.34765625	59504.70703125	56707.66015625	49810.3203125	48580.984375	53693.12890625	57172.125	39618.55078125	59979.4609375	54112.5703125
150	180	38472.9140625	45477.96484375	59889.19921875	56845.23828125	52605.57421875	65632.7421875	46291.46875	38353.2734375	43809.83203125	39071.42578125	30264.84375	56690.1875	43772.15625	37460.80859375	39470.46484375	44190.21875	59674.20703125	54943.984375	57407.88671875	63718.7734375	45465.4140625	42172.72265625	36518.98828125	56560.83984375	42074.54296875	38020.39453125	6373.7568359375	13820.794921875	60646.8828125	44308.828125	42663.375	12467.3232421875	55939.6953125	50709.3828125	61270.5625	63046.05078125	39127.234375	52902.62890625	56584.42578125	51332.8359375	54291.1875	51188.7265625	58932.5859375	59817.99609375	56801.51953125	53774.51171875	46864.3203125	52627.05078125	60678.55078125	62280.8046875	61547.546875	67831.21875	52884.94921875	57721.52734375	54089.34765625	61296.1640625	59042.92578125	60700.26171875	59457.44140625	51190.8984375	51113.375	56127.05078125	57520.046875	40730.44140625	60461.6484375	52677.625	55928.32421875	55190.125	63138.80859375	61578.4375	39945.09765625	50524.5234375	58197.53515625	48232.421875	56535.80859375	53559.1640625	55841.9140625	61173.5	56294.125	53205.9765625	43871.62109375	50076.25390625	62294.9921875	57022.15625	59720.66796875	67211.0625	54162.91796875	56106.85546875	56746.71484375	60987.9453125	60788.55078125	62557.04296875	58828.28125	52940.6328125	52156.625	55833.49609375	61910.05078125	38148.30859375	65813.4765625	56459.47265625
180	240	38534.61328125	45882.01953125	59057.64453125	57137.10546875	54419.1953125	66607.59375	47760.37109375	38325.375	44122.37109375	40007.90625	29848.056640625	56117.1171875	43386.421875	33195.32421875	39213.36328125	44459.0703125	59060.453125	55681.91015625	57269.49609375	65581.7109375	49377.60546875	42518.60546875	39368.02734375	55842.60546875	40693.6640625	34842.75390625	6348.09521484375	13858.0693359375	59642.42578125	44509.47265625	41666.9296875	12942.673828125	55522.5390625	52341.78515625	59610.984375	61304.08984375	41283.48046875	53157.1171875	56172.08984375	51179.43359375	53039.453125	50620.140625	58019.1015625	58663.47265625	57519.43359375	53247.3125	45895.87109375	52519.3046875	60274.7421875	58165.7421875	59212.03125	68876.359375	52497.578125	58395.796875	54576.19921875	60213.0390625	56746.91015625	60073.44921875	58815.4375	51307.31640625	51210.4453125	55365.34765625	58451.12890625	41861.44140625	60789.5859375	52757.17578125	57152.5859375	54052.74609375	60710.578125	60251.75390625	39762.71875	51333.1640625	57533.109375	48686.83984375	53819.73828125	52509.95703125	55230.0546875	60575.38671875	54450.984375	52717.1875	45407.26171875	49433.88671875	59185.08984375	54358.74609375	57968.9765625	65838.21875	52519.67578125	55600.18359375	54449.1953125	59716.4921875	58457.30859375	61647.9609375	58463.20703125	52487.80859375	51051.91796875	55025.06640625	58104.30859375	41455.203125	61378.125	54367.10546875
240	300	37765.52734375	44779.8984375	56592.39453125	55839.84375	50879.08984375	63967.72265625	47256.67578125	38268.203125	42226.046875	41558.26171875	28976.3203125	53597.8359375	43239.53125	32013.380859375	38380.13671875	43445.984375	56823.98828125	53574.29296875	55886.26171875	62221.21484375	49095.36328125	42053.79296875	41357.14453125	53564.66796875	39254.1640625	33264.78125	6273.75048828125	13740.7744140625	57324.734375	42467.1015625	39451.1015625	13068.162109375	53466.9140625	50376.3671875	55386.76171875	59028.55859375	38820.828125	52054.1640625	53853.44921875	50039.4296875	50549.81640625	49209.1171875	53952.46875	55509.6484375	54625.40234375	51517.84375	46107.92578125	50659.69140625	56429.80859375	53176.59765625	56066.578125	64927.25	49625.81640625	56139.265625	51626.16015625	57042.26953125	54597.5390625	56563.3046875	55471.39453125	48730.390625	49134.3984375	53312.59375	55895.18359375	41185.2421875	58311.96875	51607.1015625	54164.71484375	52725.80078125	56002.3046875	57245.48046875	39469.2421875	49149.03125	54775.140625	46805.453125	51204.2734375	51065.61328125	52561.49609375	56708.9296875	52642.0859375	50459.17578125	44375.8515625	48116.53125	55588.98046875	51953.4765625	54556.0625	62369.72265625	50100.7578125	53509.17578125	52147.1953125	56902.37109375	57297.7578125	57615.44921875	55016.09765625	50306.13671875	49267.9921875	51979.58984375	55423.08984375	39945.3359375	59319.0234375	52648.4375
300	360	36414.72265625	42997.046875	52867.14453125	53319.9609375	48709.78125	61680.53125	46752.13671875	37172.88671875	41631.67578125	39656.03515625	27419.9140625	53489.6015625	40460.234375	28915.0	36761.2578125	41878.11328125	53020.49609375	52151.73828125	52932.1484375	59867.7109375	48029.62890625	40656.8203125	41152.22265625	53088.3203125	38949.1640625	31869.00390625	6318.2607421875	13300.119140625	51776.859375	41494.15625	36605.234375	13112.6494140625	52538.05078125	46328.11328125	51708.55859375	55478.33984375	37241.9453125	49655.5390625	50768.5703125	47594.625	46663.42578125	45957.76171875	50600.77734375	52581.0234375	50886.23828125	48460.5234375	43136.2109375	46729.046875	52493.97265625	50109.1484375	51888.9921875	57448.55859375	46628.38671875	50186.171875	48362.84765625	53022.046875	52386.37890625	53293.62890625	51393.49609375	46046.63671875	46651.484375	50497.72265625	52587.7578125	40362.01953125	54223.1484375	48810.13671875	51838.50390625	48904.56640625	52472.60546875	54127.94140625	36213.51171875	47242.6328125	51617.96484375	45638.59765625	47543.4453125	47925.453125	48983.43359375	53917.94921875	49754.6328125	48063.12890625	41781.0625	45982.5390625	51869.15625	49269.74609375	49943.53515625	56597.9765625	47022.19140625	49295.26953125	48556.0625	53138.80078125	53721.5078125	53280.90234375	51482.828125	47125.3671875	47090.06640625	48929.6015625	52239.609375	38723.55078125	57166.703125	49342.640625
360	480	34052.34765625	39817.046875	47436.31640625	50153.234375	43748.68359375	55410.33984375	44391.54296875	34546.32421875	38503.4296875	38198.9453125	24833.201171875	49248.390625	38732.62109375	26698.6796875	34342.35546875	39151.703125	47237.4921875	48687.52734375	46458.8984375	54977.015625	44801.38671875	37823.87109375	38651.1953125	46782.2734375	37789.60546875	28004.7421875	5995.2783203125	12712.5439453125	46782.60546875	38870.87109375	32287.341796875	13046.0166015625	45903.58984375	43489.4296875	45810.7109375	49081.65625	36772.06640625	45267.00390625	45036.41015625	43715.04296875	41628.8671875	41512.0546875	46375.0390625	46770.203125	45746.9296875	44330.48046875	41037.34375	41369.375	46179.44140625	45060.65234375	45749.85546875	51639.01953125	41751.30078125	45773.3046875	43373.09765625	46688.78125	46719.140625	47183.08984375	45605.453125	41679.9296875	42615.484375	44484.703125	47232.30078125	38193.62109375	48708.015625	44400.08984375	45858.56640625	44137.12890625	46143.875	48460.9140625	35678.40234375	43770.140625	45628.06640625	41783.1015625	43720.4609375	43445.61328125	44508.31640625	48365.56640625	45194.2734375	44043.70703125	39807.953125	40470.296875	45630.86328125	44375.6171875	44886.9453125	50093.5234375	41784.8359375	45072.15625	43432.640625	47065.5390625	47639.6328125	47118.99609375	45275.421875	42395.3671875	43176.79296875	43168.55859375	46659.5859375	37329.6171875	50145.81640625	45742.52734375
480	600	31078.419921875	36259.14453125	40165.32421875	44545.2265625	36738.0234375	48444.875	41418.4921875	31834.3828125	34268.79296875	34406.1484375	21435.119140625	42751.875	36868.04296875	21541.525390625	31380.689453125	35972.015625	40502.7734375	43888.21484375	39806.8828125	47862.30078125	41689.41796875	34201.765625	34907.98828125	43099.53515625	33924.89453125	23682.6796875	5647.80224609375	11957.1435546875	39957.8984375	35043.08203125	27450.818359375	12854.0732421875	40079.39453125	37850.36328125	38651.60546875	41939.39453125	33454.3359375	40339.0625	38378.21875	38449.484375	36585.65625	36166.03125	40780.85546875	40391.27734375	39935.96484375	38482.140625	35839.61328125	36149.21875	39613.86328125	40053.55859375	39042.66015625	42312.6875	35802.76953125	40408.9375	37493.46875	39547.63671875	40589.75390625	40245.640625	39112.7734375	35599.56640625	37693.52734375	38204.5078125	39345.34375	35201.5390625	41700.05859375	39596.0625	40410.34375	38990.0390625	38894.12109375	41946.48828125	31826.345703125	39069.02734375	39344.265625	37279.20703125	38196.62109375	37882.23046875	39110.72265625	41708.9765625	39766.12890625	38979.34765625	34702.71484375	35166.53125	38794.265625	39124.390625	37870.09375	41366.2578125	35938.875	39952.640625	37222.3359375	40111.2109375	41598.109375	40915.70703125	39038.91796875	36597.21875	37899.15625	36776.34765625	40340.515625	33486.2421875	42140.78125	40298.0625
600	900	27478.8359375	31100.392578125	31227.96875	36890.30078125	29483.84375	39271.33203125	37209.140625	27536.40625	29037.115234375	30979.642578125	18240.361328125	34146.96484375	32287.904296875	18700.837890625	27584.78515625	30887.919921875	31660.412109375	36824.4296875	31292.41796875	38757.6953125	36730.48046875	29083.4765625	31288.61328125	34418.44921875	30632.662109375	20073.72265625	5189.09375	11162.935546875	30556.328125	30839.65234375	21852.154296875	12617.6865234375	33302.23046875	31076.482421875	31179.892578125	33476.84765625	28139.3359375	33428.203125	30942.228515625	31945.623046875	30455.37890625	29076.61328125	33109.359375	33160.6015625	32643.255859375	31755.6171875	30546.134765625	28623.4609375	31628.93359375	31709.00390625	30836.220703125	33572.83984375	28406.771484375	32104.845703125	30224.587890625	31699.083984375	33068.4140625	32264.9375	31563.568359375	28996.318359375	31110.453125	30622.505859375	31813.10546875	30896.8671875	33838.59765625	33170.55859375	32592.28125	31787.009765625	30388.568359375	33342.16015625	28381.271484375	32675.60546875	31408.71875	31111.13671875	31215.869140625	30980.435546875	31760.46875	33900.125	32010.7890625	31670.431640625	29618.337890625	28297.431640625	31048.134765625	31528.2265625	30242.509765625	32762.662109375	28705.82421875	32350.091796875	30039.529296875	32227.46875	33161.53125	32410.3671875	31033.697265625	29285.390625	31190.908203125	29607.802734375	31567.173828125	30093.5390625	34852.015625	33719.796875
900	1200	24328.27734375	26491.083984375	23538.767578125	29455.587890625	22560.15625	30778.86328125	31111.171875	23252.5234375	24043.3984375	26196.421875	15566.4765625	27422.486328125	27740.59375	16192.8642578125	24475.283203125	26579.7109375	23786.08984375	28869.419921875	23436.671875	30618.162109375	30943.578125	24167.923828125	25929.537109375	27093.78125	26675.75	17570.71875	5052.87841796875	10704.4931640625	22916.90625	26172.826171875	17523.7109375	12356.1640625	26945.771484375	25314.591796875	25079.06640625	26469.013671875	24169.857421875	27237.40234375	24855.0546875	26546.6640625	24716.791015625	23422.673828125	27551.310546875	26391.03515625	26363.87890625	25907.310546875	24883.216796875	23342.990234375	25376.720703125	26350.166015625	25088.41015625	26635.66015625	22662.271484375	25939.341796875	24138.42578125	25556.30078125	26708.666015625	26272.982421875	25188.73828125	23274.208984375	25403.30078125	24855.212890625	25904.71875	25426.025390625	26489.013671875	27610.13671875	27016.44140625	25591.55859375	24263.1953125	26661.462890625	24167.43359375	27052.439453125	25123.7578125	25752.0859375	25709.154296875	24431.859375	26228.32421875	27113.52734375	26290.146484375	25268.21484375	24601.63671875	22975.509765625	24982.875	26651.51171875	24672.5234375	26588.837890625	23000.736328125	26157.212890625	24123.52734375	25917.51953125	27335.509765625	26144.8984375	24854.462890625	23189.642578125	25360.650390625	23485.8828125	25702.6328125	25585.708984375	28034.720703125	27445.734375
1200	1500	22608.009765625	23524.13671875	19304.18359375	24874.65234375	18536.3046875	25636.419921875	27602.22265625	20476.62890625	21290.419921875	22891.59765625	13790.7900390625	22474.31640625	24425.787109375	15449.765625	22671.306640625	23855.017578125	19667.873046875	24274.912109375	19349.63671875	25123.96875	26895.37890625	20250.380859375	22347.90625	22674.28125	23897.71484375	15677.8935546875	4962.32275390625	10515.4462890625	18619.041015625	23243.83984375	15383.083984375	12355.6279296875	23997.59375	22037.943359375	22035.26953125	23540.5859375	21034.162109375	23984.515625	21829.37109375	23073.2421875	22325.638671875	20661.58984375	24011.96875	23255.578125	23125.966796875	22537.490234375	21816.80078125	19828.966796875	22340.349609375	22909.533203125	21939.84765625	23424.96484375	19933.3359375	22840.23828125	21276.7109375	22310.677734375	22313.462890625	23147.1875	22158.2421875	20346.62890625	22217.349609375	21526.84375	23127.44140625	22274.953125	23913.53125	23783.859375	23508.1953125	22125.427734375	21334.87890625	23869.3671875	20654.294921875	24023.96484375	22126.11328125	22968.59375	22815.68359375	21702.03125	23209.88671875	23808.80859375	22806.4375	22410.69140625	21833.9609375	19712.2265625	21945.552734375	24150.337890625	22135.89453125	24189.91796875	20255.9453125	22857.66015625	21260.33203125	23104.583984375	22825.1953125	23169.7265625	21728.001953125	20587.787109375	22097.76953125	20814.826171875	23281.146484375	22134.986328125	24071.408203125	23919.484375
1500	1800	21517.765625	21444.80078125	17060.189453125	21447.09765625	17051.369140625	22957.568359375	24845.037109375	18120.71875	18890.55859375	19704.140625	13216.0712890625	20270.08203125	22374.69140625	14072.74609375	21491.69140625	21792.28125	17442.5625	21279.880859375	17185.720703125	22302.552734375	24293.55859375	18550.58984375	19532.36328125	19197.0625	21693.46484375	14772.576171875	4852.90283203125	10562.0302734375	16947.685546875	21341.853515625	14309.751953125	12604.4873046875	21707.58203125	20610.69140625	20060.908203125	21844.578125	18895.259765625	22380.921875	19954.82421875	21586.2421875	20998.95703125	19053.69921875	22326.78125	21740.44140625	21363.158203125	20519.970703125	19591.79296875	18562.650390625	20546.119140625	20680.17578125	20254.548828125	22262.55078125	18105.42578125	21143.2734375	19143.951171875	20724.701171875	20818.0546875	21276.921875	20251.125	18488.189453125	20201.681640625	19682.337890625	21662.89453125	20344.75	21590.830078125	22213.01953125	21960.39453125	20646.587890625	19841.509765625	21463.048828125	18794.5625	22336.392578125	20340.28125	21462.427734375	21141.203125	19994.42578125	21430.4609375	22526.37109375	21204.46875	20502.818359375	19829.064453125	18285.06640625	20596.44140625	21495.880859375	20648.34375	22499.71875	18448.60546875	21145.64453125	19619.953125	21331.72265625	20780.94140625	21514.26953125	19946.4765625	18619.662109375	20218.326171875	19210.044921875	21288.099609375	19481.8046875	22195.240234375	21959.751953125
1800	2100	20425.08203125	19772.537109375	15516.5888671875	19258.39453125	15320.779296875	21208.14453125	23111.84765625	16276.154296875	16959.455078125	17477.97265625	12347.1064453125	17985.3046875	20754.64453125	12752.5771484375	20429.728515625	19826.6171875	15653.7001953125	18915.357421875	15646.7021484375	20384.49609375	22496.939453125	16618.75	17653.205078125	16887.71875	19705.322265625	14350.9638671875	4826.79248046875	10532.2783203125	15246.310546875	19388.142578125	13466.6845703125	12716.51171875	20494.794921875	19306.33203125	18707.70703125	20373.25	17891.849609375	21020.93359375	18530.474609375	20082.55859375	19482.822265625	17694.015625	21212.875	20448.83984375	20365.515625	18789.59375	19035.380859375	17182.05859375	19141.02734375	19556.314453125	18839.2421875	20986.060546875	16887.080078125	19478.08984375	17714.330078125	19454.439453125	19498.5546875	19595.486328125	18951.998046875	17355.29296875	18827.58984375	18373.0	19580.453125	19010.69140625	20572.056640625	20227.787109375	19983.884765625	19192.962890625	18603.314453125	20377.033203125	16267.3125	20572.896484375	18972.525390625	20206.294921875	19864.181640625	18692.306640625	20262.1484375	20886.115234375	19147.720703125	19443.673828125	19115.9921875	16815.0	19215.537109375	20005.10546875	19410.841796875	21193.787109375	17341.658203125	19285.57421875	18124.990234375	19674.998046875	19640.47265625	20225.03515625	18674.896484375	17012.10546875	18841.18359375	18008.732421875	19018.943359375	18338.443359375	20451.3125	20482.302734375
2100	2400	19462.23046875	17821.1875	14008.720703125	17443.8671875	14985.3076171875	18698.7421875	20360.0703125	14823.92578125	15771.34375	15796.083984375	11784.9755859375	16483.130859375	18574.892578125	12494.9541015625	19402.3046875	18185.322265625	14250.771484375	16635.744140625	14432.8466796875	18811.255859375	20472.6953125	15787.0029296875	16121.5439453125	15595.044921875	17486.181640625	12736.787109375	4803.38525390625	10531.2763671875	13606.9560546875	17916.599609375	12666.27734375	12677.1044921875	19016.54296875	17912.01953125	17080.328125	18683.513671875	16948.466796875	19827.6171875	16965.798828125	19046.69921875	18579.435546875	16619.662109375	19600.421875	19129.61328125	18655.728515625	17833.185546875	17895.640625	15850.1201171875	18035.5078125	18195.744140625	17481.888671875	19311.322265625	15427.3408203125	18307.396484375	16396.30859375	18161.45703125	18067.08203125	18246.59375	17679.69140625	16084.79296875	17556.02734375	17053.806640625	19420.888671875	18182.462890625	19363.943359375	19338.1875	18947.115234375	17464.7421875	16703.892578125	18336.072265625	16016.2841796875	19483.595703125	18037.841796875	18932.283203125	18870.693359375	17568.783203125	19141.70703125	19924.775390625	17923.37109375	18113.955078125	17214.228515625	15228.4658203125	18185.349609375	19552.4140625	18126.5	19848.513671875	15931.4384765625	18420.04296875	16869.138671875	18457.837890625	18361.931640625	18887.66796875	17049.349609375	16086.2509765625	17775.626953125	16810.453125	17985.03515625	16536.013671875	19583.9375	18979.216796875
2400	2700	18413.599609375	16462.96875	12925.0859375	15586.2119140625	13143.7724609375	17456.404296875	18783.375	13590.14453125	14640.94140625	15356.595703125	11201.982421875	14742.703125	16903.001953125	11322.2041015625	18382.27734375	16654.80859375	12991.822265625	15165.6982421875	12872.2880859375	16657.453125	18297.12109375	13873.875	14597.1181640625	14004.052734375	16421.58984375	12042.6484375	4707.08251953125	10420.0458984375	12699.0595703125	16042.7314453125	12049.7001953125	12537.26171875	18196.880859375	16419.01171875	16043.6396484375	18012.140625	15503.236328125	18321.333984375	16057.4853515625	18032.783203125	17175.8984375	15621.83203125	18933.3125	18150.5859375	17697.544921875	16931.966796875	16957.4296875	14776.76171875	16869.0	17493.9375	16524.392578125	18664.009765625	14846.52734375	17165.314453125	15228.11328125	17134.451171875	16920.876953125	17303.68359375	16436.572265625	15057.583984375	16656.548828125	16182.6259765625	17392.02734375	16887.078125	18718.779296875	18012.75	18218.1015625	16647.9453125	15975.25	17169.984375	14725.3779296875	18436.67578125	16933.224609375	17836.185546875	17822.654296875	16584.166015625	18041.587890625	18662.646484375	17056.970703125	17120.369140625	16167.689453125	14467.091796875	16880.150390625	18479.73828125	17193.65234375	19086.587890625	15053.212890625	17588.2265625	15849.86328125	17323.841796875	16586.19140625	17912.171875	16021.9677734375	15065.228515625	16654.404296875	15946.4765625	16861.88671875	15408.9052734375	18459.568359375	18051.98828125
