frame_start	frame_end	Left-Cerebral-White-Matter	Left-Cerebellum-White-Matter	Left-Cerebellum-Cortex	Left-Thalamus	Left-Caudate	Left-Putamen	Left-Pallidum	Brain-Stem	Left-Hippocampus	Left-Amygdala	CSF	Left-Accumbens-area	Left-VentralDC	Left-choroid-plexus	Right-Cerebral-White-Matter	Right-Cerebellum-White-Matter	Right-Cerebellum-Cortex	Right-Thalamus	Right-Caudate	Right-Putamen	Right-Pallidum	Right-Hippocampus	Right-Amygdala	Right-Accumbens-area	Right-VentralDC	Right-choroid-plexus	AirCavity	Skull	Vermis	Pons	CSF-ExtraCerebral	Head-ExtraCerebral	ctx-lh-bankssts	ctx-lh-caudalanteriorcingulate	ctx-lh-caudalmiddlefrontal	ctx-lh-cuneus	ctx-lh-entorhinal	ctx-lh-fusiform	ctx-lh-inferiorparietal	ctx-lh-inferiortemporal	ctx-lh-isthmuscingulate	ctx-lh-lateraloccipital	ctx-lh-lateralorbitofrontal	ctx-lh-lingual	ctx-lh-medialorbitofrontal	ctx-lh-middletemporal	ctx-lh-parahippocampal	ctx-lh-paracentral	ctx-lh-parsopercularis	ctx-lh-parsorbitalis	ctx-lh-parstriangularis	ctx-lh-pericalcarine	ctx-lh-postcentral	ctx-lh-posteriorcingulate	ctx-lh-precentral	ctx-lh-precuneus	ctx-lh-rostralanteriorcingulate	ctx-lh-rostralmiddlefrontal	ctx-lh-superiorfrontal	ctx-lh-superiorparietal	ctx-lh-superiortemporal	ctx-lh-supramarginal	ctx-lh-frontalpole	ctx-lh-temporalpole	ctx-lh-transversetemporal	ctx-lh-insula	ctx-rh-bankssts	ctx-rh-caudalanteriorcingulate	ctx-rh-caudalmiddlefrontal	ctx-rh-cuneus	ctx-rh-entorhinal	ctx-rh-fusiform	ctx-rh-inferiorparietal	ctx-rh-inferiortemporal	ctx-rh-isthmuscingulate	ctx-rh-lateraloccipital	ctx-rh-lateralorbitofrontal	ctx-rh-lingual	ctx-rh-medialorbitofrontal	ctx-rh-middletemporal	ctx-rh-parahippocampal	ctx-rh-paracentral	ctx-rh-parsopercularis	ctx-rh-parsorbitalis	ctx-rh-parstriangularis	ctx-rh-pericalcarine	ctx-rh-postcentral	ctx-rh-posteriorcingulate	ctx-rh-precentral	ctx-rh-precuneus	ctx-rh-rostralanteriorcingulate	ctx-rh-rostralmiddlefrontal	ctx-rh-superiorfrontal	ctx-rh-superiorparietal	ctx-rh-superiortemporal	ctx-rh-supramarginal	ctx-rh-frontalpole	ctx-rh-temporalpole	ctx-rh-transversetemporal	ctx-rh-insula
0	30	37.21199035644531	30.32015609741211	65.85124969482422	57.284217834472656	42.703487396240234	40.49359893798828	129.77218627929688	114.98485565185547	64.95805358886719	524.776611328125	42.50914764404297	54.89900588989258	64.16770935058594	469.1165771484375	51.99428176879883	50.20509338378906	72.56158447265625	59.43061065673828	87.01368713378906	58.265724182128906	-2.106091022491455	94.74437713623047	78.8204574584961	94.0739517211914	87.92182922363281	-42.35237503051758	30.245040893554688	51.14678192138672	106.91825103759766	163.94349670410156	72.19039154052734	48.984764099121094	208.5409393310547	81.61857604980469	41.325721740722656	40.4207649230957	282.9516906738281	8.4871826171875	53.848602294921875	43.32413864135742	88.48192596435547	24.74925994873047	152.8603057861328	36.48187255859375	46.84115982055664	22.78804588317871	102.7990951538086	48.003421783447266	49.71071243286133	44.50794982910156	96.6480712890625	93.85301971435547	-2.0288963317871094	29.948333740234375	21.85672950744629	80.27615356445312	133.81109619140625	42.569923400878906	61.96284484863281	16.708154678344727	171.7985382080078	28.58566665649414	-2.482569694519043	-13.484002113342285	-243.87184143066406	209.23587036132812	53.144622802734375	70.60041809082031	90.36075592041016	41.374961853027344	495.38653564453125	241.77609252929688	96.49705505371094	6.1729350090026855	94.50431060791016	-11.116171836853027	180.54208374023438	-35.4216423034668	185.83721923828125	89.53541564941406	442.4912109375	-11.891592979431152	143.1549530029297	-36.40827941894531	44.29621505737305	-8.971148490905762	37.756317138671875	166.49757385253906	33.57133102416992	-1.6454142332077026	177.7396240234375	23.027509689331055	57.85786437988281	1.2034364938735962	117.54556274414062	19.951915740966797	-126.67725372314453	134.9795379638672	20.008514404296875	170.27964782714844
30	60	1655.56396484375	4460.43994140625	9826.4853515625	9918.060546875	11740.0966796875	14238.97265625	3463.038330078125	5969.23828125	10269.4990234375	7946.61572265625	4147.40185546875	12449.2099609375	6948.6162109375	24506.916015625	2182.97802734375	4710.97216796875	9291.0966796875	8658.107421875	11787.6455078125	12788.2861328125	5461.36328125	8510.9775390625	5053.16943359375	8263.4169921875	8081.75634765625	21782.744140625	159.91432189941406	1966.1512451171875	13717.7626953125	7319.03515625	6984.05029296875	2227.711181640625	12504.15234375	10983.5498046875	16756.609375	15249.1513671875	8338.8798828125	9878.7783203125	12370.033203125	11053.94921875	13312.533203125	10261.896484375	14127.8994140625	14579.20703125	18283.58984375	12398.359375	11873.4052734375	11649.5849609375	16232.0634765625	16203.376953125	17127.126953125	19616.064453125	12903.3046875	16444.34765625	12170.7412109375	13183.953125	13902.4296875	16359.544921875	15361.361328125	9136.859375	11765.69921875	13514.763671875	17519.150390625	6030.90625	15794.16796875	12898.83203125	12539.3203125	13948.4560546875	18087.318359375	12904.962890625	11128.013671875	10257.275390625	12265.5712890625	9390.9619140625	13919.6904296875	10445.849609375	17413.24609375	13861.36328125	13866.646484375	10760.087890625	6843.5615234375	7492.61474609375	16163.1689453125	13540.86328125	16823.73046875	17246.423828125	12571.69140625	11491.7783203125	11837.0263671875	14629.1435546875	10713.04296875	15577.6103515625	14920.384765625	8578.3681640625	11518.3134765625	12448.119140625	21049.765625	8565.28125	18002.984375	14121.0498046875
60	90	5577.841796875	14210.6845703125	31459.267578125	31951.390625	41022.51171875	44643.66796875	12646.4853515625	17068.23828125	26041.935546875	21785.001953125	8569.19140625	30301.615234375	23834.794921875	82697.53125	7247.337890625	14859.2626953125	30512.193359375	29846.78515625	42400.046875	42443.8046875	17053.318359375	24712.525390625	15281.5302734375	28929.28515625	21017.35546875	67790.859375	344.2403564453125	5187.171875	35288.73046875	21715.908203125	13395.94921875	6760.31787109375	37580.28515625	33381.05078125	53543.04296875	51907.25390625	25815.3359375	32004.79296875	41033.9375	37192.5859375	39206.33984375	38390.21484375	42813.2421875	42630.15234375	50050.02734375	40124.68359375	28457.1640625	41567.06640625	49478.7265625	53567.10546875	54032.296875	68302.8359375	42693.3984375	43961.92578125	43237.12109375	47234.453125	43119.29296875	51888.83984375	49767.30859375	36246.8046875	34499.44140625	44354.91015625	47903.5546875	21594.005859375	48872.26953125	37071.640625	41236.29296875	33780.515625	54359.54296875	43885.359375	30473.951171875	28758.79296875	40105.390625	32996.171875	37458.546875	38677.42578125	43709.01171875	44423.5234375	38947.92578125	34772.3515625	24510.98828125	28439.923828125	50949.203125	44390.68359375	50222.07421875	57626.171875	40713.04296875	34624.19921875	41232.171875	45191.94921875	31886.224609375	49267.88671875	46000.52734375	37676.3828125	32689.3671875	41646.1328125	58807.34765625	22976.017578125	42276.54296875	40015.25
90	120	9562.3212890625	25005.390625	52591.578125	52353.51953125	66561.4609375	74450.0	22776.62109375	28148.07421875	44466.875	34313.2265625	14590.7431640625	45109.9375	34588.23828125	104219.6875	11601.3095703125	22478.767578125	51752.87109375	47718.6328125	74771.25	69627.5703125	31806.041015625	38755.12109375	28965.287109375	27589.42578125	33730.6640625	106341.1953125	481.9361877441406	8303.80078125	59290.11328125	36123.734375	17469.9453125	11068.4375	58494.98828125	63865.00390625	89862.2734375	85178.9765625	40056.7265625	55898.30078125	69758.359375	62493.078125	68180.484375	67503.0546875	72726.234375	69460.6171875	76904.7421875	67486.859375	44927.1171875	69926.0546875	82554.1640625	86594.21875	85317.21875	116001.6484375	72186.71875	75647.671875	73455.9296875	77769.3671875	67401.5546875	88435.125	82743.4140625	64066.3828125	56574.14453125	72926.921875	87397.9921875	38823.44140625	83387.484375	57387.3515625	64828.94140625	48704.09375	88179.2734375	74871.359375	44348.9609375	53033.12890625	68744.1953125	54426.5703125	63481.046875	67785.6875	73117.6171875	71858.6640625	66597.234375	60820.2265625	37970.3984375	57913.765625	78038.7265625	70593.2890625	78605.3515625	101506.90625	69028.46875	60077.71484375	72139.96875	73338.2734375	60474.5234375	82109.3515625	79921.6953125	67321.34375	53237.703125	70124.34375	93259.7109375	43778.68359375	76489.4921875	62155.13671875
120	150	13024.5693359375	33364.609375	69131.78125	69172.5625	91573.8046875	103991.609375	25032.146484375	37573.0	52507.2890625	43591.9609375	14698.4609375	54045.58203125	48308.93359375	154994.328125	15332.9912109375	30815.037109375	67393.765625	65040.43359375	97454.96875	91453.8359375	42360.69921875	50021.40625	33643.62890625	50011.33984375	41884.828125	129220.0703125	-92.97115325927734	10243.1552734375	74231.34375	48023.83984375	17252.546875	14084.623046875	81432.796875	77415.90625	117629.4140625	112764.4375	64721.85546875	72817.8203125	94676.21875	84431.0859375	85939.4765625	90442.40625	93361.3515625	91553.0	102827.890625	90555.3125	57805.9453125	95520.0234375	106502.1015625	116101.1171875	110543.7578125	158241.828125	98624.3671875	93801.734375	97856.0390625	101727.3515625	90640.4140625	116211.875	109257.0078125	90680.125	73871.2265625	96411.2421875	105736.921875	50769.0	94834.09375	71601.09375	87248.703125	65933.6171875	115049.2421875	96723.7890625	57016.55859375	69248.34375	92962.0859375	73646.8828125	82035.2890625	90465.2734375	95160.046875	92773.7265625	82660.21875	80566.5625	54324.63671875	81696.1953125	99261.0625	94294.546875	105407.453125	132049.125	95763.3125	81710.3203125	97287.9453125	96968.375	72182.921875	110943.3671875	104432.3671875	94698.3125	68580.890625	93905.59375	121352.5078125	56788.75390625	93064.1953125	76705.5546875
150	180	14580.3720703125	34730.0625	72206.8359375	72737.28125	94984.46875	105990.0	33597.0625	37828.94140625	56092.55859375	46524.36328125	13270.0234375	68849.140625	50098.27734375	135143.125	16534.08203125	33494.90234375	70959.4765625	69045.1640625	101613.9921875	96108.828125	38014.76953125	54711.01953125	36747.65234375	58841.2421875	46698.390625	126830.578125	41.321414947509766	9915.6455078125	74919.046875	50496.3984375	14008.4833984375	14980.482421875	90357.1171875	71359.78125	129276.6015625	116940.3671875	64167.22265625	79190.9765625	98711.4140625	89902.046875	87285.625	95604.9765625	99899.4609375	96425.234375	103023.0546875	97315.1953125	63829.390625	99551.7421875	109023.3828125	120572.453125	116328.5859375	153931.296875	106400.234375	97898.5	100918.2890625	107303.546875	88649.0234375	123782.4296875	114348.796875	98079.46875	77864.6015625	100944.9296875	117624.1015625	60298.30078125	98270.59375	74379.765625	87701.140625	74494.5546875	124272.890625	109556.421875	66230.4140625	74092.3515625	99601.5703125	80871.953125	92282.1015625	100203.8515625	96132.0390625	100968.5546875	89593.390625	87598.828125	52651.3984375	89101.3203125	103748.4609375	104397.859375	110066.15625	136546.390625	104154.4140625	83546.9609375	104801.4453125	103074.2890625	85074.6171875	117995.7578125	109975.3515625	103331.7109375	75282.875	97942.5390625	135422.90625	52483.46484375	104913.5546875	79314.8046875
180	240	15175.0048828125	35816.8671875	70849.59375	73298.8125	99419.703125	106155.8359375	35372.77734375	37845.41796875	57566.05078125	47784.4453125	11877.505859375	67467.0078125	48706.02734375	104563.5546875	16901.1640625	34362.59375	70218.6328125	70291.484375	100968.7578125	98783.1875	44372.83984375	54977.890625	44672.40625	59054.83203125	44841.05078125	96915.2265625	-105.94267272949219	10083.56640625	75156.1171875	50850.50390625	11939.4404296875	15624.1044921875	88848.28125	77913.1875	124517.8515625	112210.1484375	67764.25	81207.765625	98036.203125	88816.5859375	89243.34375	94620.953125	98488.6171875	92874.140625	107188.140625	95530.5859375	59188.61328125	97361.2734375	108627.34375	110505.2421875	112174.5234375	157360.640625	105327.7265625	98955.84375	102677.9921875	105056.03125	83800.515625	122337.3671875	112674.140625	99603.3984375	78341.921875	98976.7734375	119258.65625	62215.75390625	98198.828125	74519.75	90035.8203125	71490.5703125	118908.609375	107822.09375	64412.22265625	75441.1484375	98421.515625	82036.6796875	83204.71875	98162.3671875	95812.15625	100081.1328125	85831.6328125	87083.7109375	56178.1171875	89648.140625	97243.3671875	99819.9375	107094.4296875	134455.703125	101721.1953125	83292.484375	100352.78125	101210.2734375	80313.21875	116753.40625	110095.3984375	103794.0546875	73750.296875	97626.96875	125103.15625	60248.3125	92137.8515625	76256.7578125
240	300	16520.92578125	35501.56640625	67679.9609375	71293.171875	91420.4140625	100050.5	38417.96875	39394.62109375	52654.171875	52497.8359375	10592.8974609375	62464.421875	49122.72265625	92592.9609375	17869.826171875	34437.82421875	67280.0703125	67649.7890625	98919.8515625	91287.3671875	47355.359375	53609.796875	49954.79296875	57079.875	42382.71875	86119.6015625	-186.6818389892578	10311.05859375	71343.015625	47928.59765625	10578.373046875	15713.6474609375	84413.09375	73579.5234375	113539.5390625	107879.8046875	61749.60546875	78436.6953125	92874.4609375	86258.6484375	82855.1484375	90777.734375	89942.6171875	86069.9296875	100508.140625	91464.3828125	64957.20703125	93627.6171875	100231.25	99290.8203125	106076.1875	143096.484375	98093.53125	94545.328125	95483.96875	98137.78125	80539.34375	114007.453125	105298.59375	92321.546875	74767.0078125	94033.7578125	114334.125	62544.421875	92269.1328125	74481.2421875	84502.3515625	71543.0625	108546.359375	100645.578125	64271.3828125	71596.9140625	92980.375	78644.8046875	80865.3984375	95043.421875	89758.90625	91744.421875	83362.65625	83924.8203125	57421.734375	86884.3515625	89187.0859375	94736.5703125	100786.0390625	124575.6015625	96144.7734375	78959.9921875	95740.453125	95558.3984375	79516.15625	108098.3359375	102777.546875	99069.6875	70942.078125	90689.9609375	119906.765625	57948.6171875	89031.234375	74105.1953125
300	360	17408.349609375	34864.7109375	63129.734375	67812.5859375	88143.453125	94895.1015625	39795.765625	38596.27734375	52192.0390625	50680.28125	7546.10986328125	66891.9375	44864.58984375	74445.3046875	18103.921875	34126.25	62700.40234375	65614.3984375	92720.59375	87162.4765625	46435.6484375	51317.296875	51151.6875	60614.296875	43800.23046875	84106.84375	126.56722259521484	10120.4677734375	60994.1875	47088.18359375	8468.806640625	15851.615234375	82046.7890625	66075.5078125	104341.5625	100334.9453125	59946.35546875	74853.046875	86526.4296875	81355.609375	73676.734375	83552.4765625	83748.6875	82860.375	91597.96875	84773.46875	57593.8515625	85428.3984375	91597.8828125	92930.8125	96748.640625	121452.7265625	91709.5390625	80819.6640625	88711.4609375	90468.8046875	78177.5703125	106531.2734375	96303.484375	87967.9140625	70611.265625	88478.6328125	109108.546875	62507.5234375	82476.5390625	70307.703125	80155.6015625	66289.40625	100538.0703125	96466.03125	57774.75	69331.4453125	87218.8046875	76763.8515625	74540.3359375	88788.21875	82906.140625	86656.7265625	79093.40625	79102.015625	52059.02734375	84483.8828125	83899.90625	89336.2265625	90831.5703125	109185.1171875	89859.09375	73079.4921875	87607.671875	89127.8828125	73609.8984375	99681.53125	95772.09375	93231.8125	68866.65625	85302.890625	112179.9765625	57564.3125	86992.2734375	69180.921875
360	480	18392.537109375	33405.23046875	56308.53125	63534.8828125	78074.046875	82969.1953125	39854.74609375	36656.48828125	46350.4375	51507.40234375	4154.8349609375	65530.58984375	43296.74609375	63427.7734375	18778.873046875	33111.95703125	55469.6171875	61322.08984375	80473.5703125	79295.328125	42436.3203125	46575.84765625	49250.609375	46899.28515625	42874.62109375	67335.3671875	-14.469528198242188	10059.1044921875	55982.64453125	43996.8125	6174.90966796875	15763.6845703125	69965.125	65238.4765625	89927.2890625	86815.7109375	63009.23828125	66694.8046875	75551.5390625	73642.359375	64885.34375	73247.28125	76059.828125	72103.0546875	80423.375	75821.8515625	58171.2734375	74144.5390625	78113.6640625	81647.484375	82969.828125	103741.171875	80193.71875	71764.03125	77998.71875	77660.6640625	67362.0625	92345.78125	83875.46875	78766.3671875	64148.23828125	75745.4765625	99418.03125	59524.25390625	71951.9453125	63906.87890625	68286.8515625	58922.359375	87254.609375	85965.203125	59388.93359375	62555.74609375	76078.03125	69634.3984375	69859.15625	79337.71875	73231.6875	77115.75	72272.5546875	72153.234375	52112.5625	73034.8046875	70443.65625	81350.625	80630.5234375	93958.359375	78720.640625	66370.1875	78030.5859375	77109.921875	65690.125	87048.5859375	82616.4296875	83266.9375	62944.72265625	73830.65625	98899.9375	55641.953125	68292.703125	65150.71484375
480	600	19317.73828125	32260.86328125	47004.68359375	55783.57421875	64310.5390625	69289.8125	40508.92578125	34852.53515625	39476.84375	46338.19140625	-115.7269058227539	56634.30078125	43521.7265625	39304.62109375	19395.27734375	32164.5859375	47076.93359375	55248.26953125	67415.3515625	66258.4765625	42787.6875	41761.13671875	44141.1484375	54082.9140625	38155.16015625	45892.6640625	10.27538013458252	9893.3623046875	48138.38671875	39398.171875	4058.87548828125	15479.15234375	58565.47265625	53093.66796875	72462.9921875	73017.1484375	58888.95703125	58552.8828125	62043.12890625	63188.93359375	55280.87890625	61683.703125	64996.8984375	60707.2421875	68453.390625	64038.8046875	49708.65234375	64191.90625	65030.33203125	72637.84375	67454.3828125	78523.9921875	67140.8828125	60957.5	65065.140625	63778.43359375	56016.9453125	76134.8984375	70138.109375	65108.72265625	56197.54296875	62662.8125	79687.5234375	55458.9609375	57649.265625	57102.53125	58209.14453125	54180.390625	70539.1640625	73491.5625	53195.51953125	56027.921875	64265.12109375	60699.8671875	61750.77734375	68029.953125	63203.81640625	64245.28515625	62114.875	62834.56640625	43824.5625	60685.3515625	59043.65625	70114.1640625	65868.5703125	72062.0234375	66516.6328125	58381.37109375	64717.1953125	64010.45703125	57117.7109375	73837.609375	69565.2578125	70475.4765625	54941.1171875	61341.1015625	85463.2109375	48900.296875	53695.1953125	57032.66015625
600	900	20277.78125	29730.9609375	35639.4375	45254.25390625	49252.5625	52172.12109375	40479.2265625	30873.197265625	31182.294921875	43396.15234375	-1702.84619140625	40385.94140625	38077.9296875	25904.154296875	19966.662109375	29330.169921875	36112.12109375	45392.05859375	49672.48046875	50209.8125	40572.7890625	33084.67578125	41591.23828125	40344.796875	35505.265625	28411.677734375	-191.13160705566406	9835.5244140625	34906.0625	34658.5234375	2431.08349609375	15088.521484375	46453.00390625	43562.60546875	54872.34765625	55163.796875	48581.37890625	46642.65625	47476.33203125	50204.8828125	44169.546875	45889.6796875	50315.09765625	48945.3515625	54304.1875	49792.55078125	43035.61328125	46884.76171875	48703.40234375	54307.55078125	49844.5078125	54307.77734375	49277.43359375	45345.66796875	49285.4921875	47967.109375	44169.76953125	57732.578125	53849.37890625	50928.390625	44634.19921875	47092.6015625	62871.21875	48256.4140625	44146.27734375	47533.46484375	43789.55859375	42551.0078125	52323.26953125	56894.62890625	46856.6328125	45173.75390625	49247.41796875	49120.578125	49046.6796875	53286.8515625	48462.15625	50084.9296875	47742.69140625	49437.88671875	38377.20703125	47066.08984375	45407.16015625	55246.125	50058.59375	52325.2890625	50151.99609375	45734.05859375	49576.39453125	48829.65234375	44404.61328125	56062.37109375	52928.32421875	54001.06640625	44165.98046875	47106.4765625	65727.8515625	45022.84375	42943.06640625	47363.171875
900	1200	20875.337890625	27309.5859375	25868.154296875	35079.6640625	34235.953125	37322.46875	35152.3828125	26044.09765625	23705.87109375	36241.20703125	-2228.640869140625	29369.572265625	33210.8125	19242.578125	20644.66796875	27361.48046875	26196.3359375	34299.2734375	32755.3671875	36508.90625	35505.0078125	25859.03515625	33403.296875	28572.470703125	31454.18359375	21338.96875	-125.96358489990234	10009.3720703125	24503.998046875	29341.7578125	2119.47119140625	14578.4580078125	34417.1484375	33332.546875	40392.60546875	40551.62890625	41724.83203125	36429.80078125	35167.1640625	39475.296875	33705.234375	33050.50390625	39369.83984375	36351.875	40617.8203125	37730.10546875	33632.875	35420.1015625	36309.29296875	42384.015625	37083.01171875	36203.2734375	35408.1015625	33293.3984375	35740.6953125	35855.55859375	33266.59765625	43325.46875	39814.8515625	37617.66796875	34456.515625	35407.37109375	49368.1875	38892.90625	31232.41796875	38295.4375	33921.71875	32209.28515625	38212.25	42354.46875	38992.890625	35908.859375	36876.68359375	38639.14453125	37967.06640625	38779.73046875	37161.98046875	37504.67578125	37373.97265625	37477.55859375	30729.33984375	34561.59375	34349.0390625	45043.37109375	38026.24609375	38301.40234375	36894.70703125	34426.42578125	36580.9140625	36970.89453125	36009.71875	42146.390625	39154.77734375	39431.24609375	34372.25	34868.3203125	51276.1171875	37201.90234375	33584.328125	36501.37109375
1200	1500	21166.546875	25343.458984375	20547.583984375	28911.94140625	25556.806640625	28245.357421875	32204.001953125	22871.005859375	20336.490234375	30964.51953125	-2926.31689453125	20272.224609375	28715.771484375	16768.33203125	20607.265625	25600.5625	21013.009765625	28149.123046875	25205.150390625	27596.92578125	31340.763671875	19898.927734375	27939.939453125	22006.294921875	28709.580078125	20066.408203125	-211.10572814941406	10150.3017578125	18453.837890625	25911.74609375	2162.25341796875	14465.6650390625	29242.947265625	26885.923828125	32816.80078125	34349.7578125	34039.54296875	31181.81640625	29076.630859375	32100.638671875	29345.923828125	26839.400390625	32376.03515625	30825.146484375	34060.46484375	30838.4765625	27547.23046875	26397.76171875	30238.69921875	34865.75	30238.634765625	27931.54296875	28753.947265625	27025.11328125	29381.607421875	29331.642578125	25119.796875	35833.19921875	33032.62890625	30628.828125	28662.076171875	28491.720703125	43184.90625	32778.7890625	29234.884765625	31023.255859375	27657.609375	26934.94140625	31564.453125	36881.28515625	30641.357421875	31133.203125	31012.873046875	33187.22265625	32939.703125	32503.3359375	31377.794921875	31519.01953125	30917.939453125	32115.08203125	26265.33203125	26942.42578125	28842.935546875	39995.19921875	32662.91796875	33046.21875	30503.369140625	29621.287109375	30366.076171875	31568.125	28888.3828125	35467.046875	32536.634765625	33256.84765625	28509.115234375	29233.19140625	46351.91015625	31295.08984375	27374.857421875	30350.439453125
1500	1800	21161.466796875	23570.1015625	17664.251953125	23994.314453125	21987.333984375	23695.814453125	29134.6015625	19738.578125	16997.646484375	25118.7109375	-1315.971435546875	16070.4326171875	26378.533203125	10355.634765625	20505.47265625	23751.873046875	18188.765625	23940.80859375	20461.91015625	22961.0078125	28334.20703125	17935.703125	22905.482421875	13597.072265625	25608.583984375	13469.5126953125	-452.33148193359375	10422.708984375	17472.783203125	23839.9296875	2685.642578125	14652.0927734375	25368.443359375	24886.673828125	27490.638671875	30934.2578125	28787.46875	28624.490234375	25260.8828125	29157.169921875	27001.412109375	23172.748046875	29025.33984375	28601.345703125	30114.52734375	26495.47265625	22497.57421875	24135.13671875	27060.435546875	29773.216796875	26269.478515625	25204.75	24330.1953125	24249.4375	24222.189453125	25954.63671875	23218.115234375	31298.9375	28448.18359375	26074.09765625	24604.96875	24849.57421875	40382.23828125	28783.220703125	26305.265625	28631.505859375	24830.396484375	24711.10546875	27702.078125	30840.041015625	26756.654296875	28521.83984375	27297.935546875	30080.4296875	28990.5703125	28245.568359375	28096.359375	29753.564453125	28227.3828125	28147.537109375	21374.02734375	23533.37109375	26766.603515625	33779.32421875	29130.48046875	29289.1015625	25651.236328125	26139.392578125	26534.595703125	28329.9765625	24878.75390625	31850.49609375	28321.796875	27994.52734375	25006.8359375	26056.3203125	41458.3046875	25829.26171875	26320.142578125	26752.53125
1800	2100	20707.53125	21982.279296875	15838.087890625	21055.064453125	18692.90234375	21073.3671875	26730.853515625	16981.56640625	14377.3984375	21031.361328125	-1212.76953125	9734.6591796875	24802.130859375	5159.72314453125	20047.572265625	21859.359375	16054.6142578125	20687.47265625	17603.615234375	19989.8515625	26306.763671875	15355.4755859375	20314.7578125	9634.8486328125	22995.423828125	15892.67578125	-508.34423828125	10488.708984375	15312.2451171875	21628.646484375	3076.861328125	14762.5068359375	23371.615234375	21967.69140625	24879.947265625	27517.193359375	25976.302734375	26456.408203125	22704.390625	26331.521484375	23593.8828125	20234.326171875	27255.2734375	26622.193359375	28677.740234375	23107.689453125	22604.55859375	20665.509765625	24216.39453125	27613.70703125	23772.41015625	22641.771484375	21659.34765625	22048.873046875	21260.23828125	23835.654296875	20810.96484375	27394.990234375	25727.93359375	23307.279296875	22429.076171875	22500.56640625	35173.859375	26344.74609375	25638.55859375	24733.83203125	21394.76171875	22484.25	25564.642578125	29380.7109375	20487.484375	25858.46875	24911.775390625	27774.873046875	27202.083984375	25485.2890625	26156.75	26853.205078125	24012.482421875	26282.6875	22351.8828125	20448.625	24547.59375	30102.103515625	26726.0859375	26802.708984375	23672.14453125	22770.45703125	23196.525390625	24961.482421875	23817.748046875	29117.208984375	25619.38671875	24305.30078125	22545.595703125	23784.998046875	35319.69921875	24099.408203125	23155.833984375	24424.24609375
2100	2400	20273.484375	19945.2578125	14020.1474609375	18841.515625	17941.208984375	17341.267578125	22836.330078125	15329.9755859375	13317.24609375	18469.44140625	-735.0403442382812	8464.0830078125	21744.330078125	3117.14501953125	19530.05078125	20218.5546875	14336.4462890625	17898.8828125	15423.2431640625	18047.220703125	23464.220703125	14613.619140625	17382.0390625	6623.81689453125	19951.751953125	6412.8154296875	-611.7496337890625	10685.548828125	12734.5517578125	20010.814453125	3212.811279296875	14633.1982421875	21091.796875	20760.994140625	21092.990234375	24335.05078125	24699.234375	25016.189453125	19464.17578125	24363.3984375	21552.126953125	18247.810546875	24357.341796875	24404.662109375	25115.703125	21200.939453125	20565.0390625	18562.771484375	22627.58984375	24769.892578125	20314.578125	19430.166015625	18241.578125	19604.169921875	18637.08984375	21710.986328125	18879.162109375	24463.837890625	23061.15234375	20767.072265625	20232.623046875	19842.908203125	35979.1875	24655.03515625	23719.771484375	24105.71484375	19403.45703125	19598.919921875	21281.20703125	24101.29296875	20683.486328125	24660.755859375	23138.583984375	25278.462890625	26295.150390625	23113.798828125	24089.205078125	25890.771484375	22137.75390625	24113.904296875	17781.12890625	15697.6689453125	22976.5859375	29394.515625	24108.654296875	24541.95703125	20239.376953125	22533.15234375	21073.201171875	23079.7890625	22473.447265625	26490.431640625	22192.390625	22509.173828125	20937.060546875	21388.748046875	33429.50390625	20096.150390625	23922.23046875	21787.47265625
2400	2700	19442.63671875	18493.5234375	12795.8427734375	16449.474609375	14331.65625	15833.6474609375	20995.560546875	13736.2822265625	11911.224609375	17680.666015625	0.048544835299253464	4373.85498046875	19361.5546875	1165.5001220703125	18743.830078125	18587.474609375	12842.23046875	15971.05078125	12404.513671875	15076.5625	20506.296875	11828.908203125	15079.64453125	5352.06298828125	19339.345703125	7566.94873046875	-648.7208862304688	10653.91796875	12420.2958984375	17792.560546875	3478.542236328125	14451.150390625	19731.44140625	16135.8759765625	19202.177734375	23146.935546875	21203.41796875	22286.2265625	18058.390625	23038.1171875	19030.271484375	16601.666015625	23664.169921875	23512.326171875	23280.828125	19924.3671875	20082.173828125	15656.7685546875	20639.373046875	23082.662109375	19015.1015625	18168.53515625	17697.810546875	17906.845703125	16468.935546875	20048.849609375	18812.55859375	22750.255859375	20809.658203125	18680.537109375	18741.095703125	18814.2890625	30946.501953125	22104.083984375	24192.984375	21782.48046875	19265.958984375	19586.20703125	20153.107421875	22009.22265625	17669.345703125	23278.029296875	21251.748046875	23466.970703125	24308.009765625	21453.48046875	22059.7421875	24013.333984375	21237.947265625	22398.646484375	16953.259765625	15350.078125	20782.125	27201.474609375	22461.0546875	23767.87890625	18651.361328125	21042.025390625	19313.275390625	21582.52734375	18492.1171875	24636.650390625	20200.537109375	20381.64453125	19402.888671875	20078.263671875	30296.509765625	18160.28515625	22919.373046875	20458.9765625
