frame_start	frame_end	parasubiculum	HATA	fimbria	hippocampal_fissure	HP_tail	presubiculum-head	presubiculum-body	subiculum-head	subiculum-body	CA1-head	CA1-body	CA3-head	CA3-body	CA4-head	CA4-body	GC-ML-DG-head	GC-ML-DG-body	molecular_layer_HP-head	molecular_layer_HP-body	Lateral-nucleus	Basal-nucleus	Central-nucleus	Medial-nucleus	Cortical-nucleus	Accessory-Basal-nucleus	Corticoamygdaloid-transitio	Anterior-amygdaloid-area-AAA	Paralaminar-nucleus
0	30	3.506	0.11885	8.26358	7.61948	1.15209	5.86877	8.92322	3.34797	11.54817	3.28959	14.33684	0.76647	6.16429	4.90205	9.75404	4.83013	10.42172	4.52258	10.41879	3.25661	1.96163	0.62981	0.4093	0.13248	0.25222	0.68271	3.24568	5.38408
30	60	27.16157	17.04064	17.18215	17.97754	21.47364	15.93799	24.46646	7.95348	13.02324	16.53914	10.65511	18.83144	15.94892	18.67006	12.30643	19.00068	12.70568	14.80058	14.95177	7.15851	12.79909	22.65065	38.02845	35.52251	24.11771	29.22851	23.5904	6.28158
60	90	2732.27514	2217.5797	3158.40665	3519.14904	2776.75444	3049.5176	3555.59524	2535.04488	3085.05561	2122.10088	2478.1522	3964.34324	3040.19735	3552.9493	3312.46726	3169.66366	3321.20643	2730.64731	3160.90326	1763.90422	2275.55553	2362.87362	2267.37613	2068.63804	2325.348	2630.88255	2946.41945	1925.48816
90	120	8824.13601	8052.9218	9941.05476	9596.22651	8961.94586	9904.46979	10918.44686	8277.86146	9532.51604	7595.58051	7149.21932	8787.03112	8436.81234	8852.78592	9451.89789	8658.02307	9406.03002	8257.94307	9209.92463	7572.065	7950.57527	7432.20201	7128.51689	7591.49043	7896.72898	8257.78345	9993.93778	6860.18498
120	150	16975.92558	14285.75163	16035.98111	17385.55249	15829.06885	18122.33608	18968.75673	15407.07882	15933.98407	14110.40156	13984.11451	16480.41765	14787.03446	17787.1261	16325.61412	16841.20537	16197.32766	16179.54251	16122.83135	13881.70634	14235.47488	16092.86893	15445.24373	13983.78027	15195.65558	15012.2418	17057.01489	12577.01938
150	180	21198.83837	20039.89247	25312.70895	23942.80813	22186.39987	23672.81307	26631.11886	22553.10107	24188.60584	21918.58501	19317.36773	23505.11091	21986.44104	23112.41861	24569.01307	22580.99243	24470.75712	23219.42292	23900.34735	22394.86047	21381.23344	22532.59323	22110.6224	20776.34277	20228.42634	20121.14243	22767.53708	21777.5228
180	240	24841.10809	23011.70326	31053.8418	28420.20713	26758.05256	28192.15142	30040.25664	28732.43048	30203.04544	25849.78769	25418.33646	25085.25319	28188.62485	27208.54972	30820.51355	26763.37243	30407.18697	27577.82383	29557.88568	27354.09878	27200.04767	27397.96181	26917.48421	25988.25109	25990.69566	24367.57724	26424.72897	27681.26281
240	300	27770.5932	26434.53362	32084.43216	30846.69043	28436.39677	31325.54407	32797.99257	31069.61915	31990.77674	28087.70293	27761.9043	28845.51364	29438.70867	31301.68993	32502.98474	30302.67108	32021.74017	30789.5146	31609.81732	28771.33858	28177.09901	30520.03687	29039.61914	28449.88898	27596.16586	26214.12998	27544.67946	28459.46646
300	360	27848.11115	27780.44277	32505.93066	29991.43594	28313.98512	30927.26031	31640.55152	30842.03241	32305.128	28447.23	27793.3089	26608.34473	29476.03796	28866.52889	32258.50657	28834.91432	31998.17049	29771.12121	31535.0411	30475.09164	30312.40846	29417.99972	28748.51318	30021.93438	30390.44616	27761.44581	27012.68284	29791.2508
360	480	25930.57332	24447.38681	30418.50341	28218.45402	26287.04049	29109.99005	28663.88836	30041.25052	29687.58319	26833.11052	26771.5092	24085.7355	27098.33544	27584.32098	29744.84769	27256.35501	29491.39037	28471.38519	29054.90769	29891.26933	28403.77511	27805.32426	26919.67806	28026.56789	26919.8534	25289.62053	27146.61558	28013.17435
480	600	23963.05811	23064.20679	26872.44238	26712.36031	23177.02008	28400.5491	27495.05123	27996.19621	27177.69328	25391.68853	22731.04931	22915.99532	23758.95986	26685.45994	25861.38619	26490.17448	26034.54248	27067.54631	25818.15174	28366.33405	26590.90477	25339.14466	26465.21322	25732.35277	25376.79635	23428.22446	25284.5482	25195.02374
600	900	19585.45819	19880.60005	23134.8751	21957.78268	19594.67725	22992.5842	22284.99592	24008.54533	23380.60857	21866.48914	19939.58967	19633.89896	20576.58095	22601.22426	22293.71676	22256.76709	22305.36938	22965.64565	22060.48011	25154.01513	23604.81466	22440.47862	23137.993	23801.0073	22952.20114	20756.25222	22501.10216	22166.52885
900	1200	15537.04361	17776.15806	18413.70611	17789.77614	16611.36755	18425.65676	17415.09596	18785.65283	18627.6997	17935.89457	17293.28607	15733.57464	17211.27327	17747.53383	17945.70672	17666.11461	17962.47785	18374.46724	17837.26998	20540.10409	19892.31208	18620.54686	19057.87118	20059.14637	19976.8937	18057.25448	19110.66399	17810.65636
1200	1500	13255.95287	13997.96629	16054.99793	14936.32613	13824.18281	15165.4546	14540.43535	16463.68483	15456.80814	15463.75031	14717.53678	13980.2036	14879.1204	15286.87045	14983.18829	15340.27114	15012.47308	15770.16331	14928.2938	17835.88267	16426.85812	15864.06108	16547.4576	16598.7798	15634.89792	14170.48012	15511.29038	15024.58309
1500	1800	11318.72172	13198.66349	14142.97599	13241.03116	12510.11844	13133.57188	13191.03308	14312.24635	14194.94337	13070.26466	13488.58251	12479.72186	13239.22222	13669.85699	13585.21822	13543.92188	13599.94701	13528.08223	13565.0277	15830.21994	14334.48206	14377.05316	15430.73657	15389.63932	14114.16384	12756.59003	14032.77676	12676.57226
1800	2100	9935.94709	11708.00454	12411.53748	11479.91052	11395.5853	11576.62137	11293.74234	13049.83567	11930.22896	11674.80107	12474.3188	11002.81061	11749.45422	11647.99171	11623.39897	11668.33983	11753.36905	11884.74334	11801.78818	13631.01111	12006.19681	13008.71338	13722.82878	13501.0491	12267.28627	11427.80661	12012.78358	11144.20638
2100	2400	9093.05317	10298.33444	11984.92203	10570.53163	10274.02407	10327.74569	10709.67518	11353.75788	11899.50164	10534.48941	11542.45462	10326.03111	11418.79562	10242.34763	11477.68614	10440.47767	11535.98513	10602.02161	11419.20461	12411.52696	11466.1724	11668.7329	11870.58683	11291.02785	10872.0935	9880.92613	10558.03004	9784.75897
2400	2700	8371.47923	9167.22629	10879.64528	9411.18997	9355.41653	9443.82152	9418.40104	10420.06036	10145.03885	9174.42054	10757.29931	9192.7781	10454.14749	8918.77037	9882.40277	9057.37456	10047.50741	9403.27557	10095.76354	11149.16896	9843.47767	10638.65257	12012.0284	11677.82697	9720.4189	8470.28201	9896.67269	8575.87754
2700	3000	7898.93123	8705.14697	9346.07949	8800.90667	8377.67538	8716.41116	8960.47777	9486.17698	9820.05555	8821.97141	9963.88914	8522.48549	9364.74075	8536.13877	9159.81442	8784.36952	9307.9364	8884.96022	9306.9556	10057.16541	8469.30753	9293.02803	10002.13574	9856.08328	8712.83325	7982.52192	8852.83961	7914.95116
3000	3300	6877.71253	8119.08256	9081.84952	7777.63358	8067.95463	7494.9368	7899.22904	8549.93573	8636.25077	7730.15164	8809.92167	7392.59807	8554.4503	7321.89868	8271.1918	7479.37895	8362.21284	7685.51485	8343.84479	8741.52828	7834.51583	8241.57272	8404.17859	8312.16301	7926.3055	7426.35393	7663.73965	7142.31742
3300	3600	6421.12332	7665.7088	7425.80463	7007.23473	7149.52916	7390.90091	6984.66727	8407.06897	7542.4476	7134.27275	8365.16432	7089.60792	7277.16015	6900.47407	6934.52134	6985.03048	7068.29662	7257.52125	7238.81708	8271.17073	6742.427	7561.12564	7612.22575	7288.6572	6667.95748	6482.17918	6911.01534	6555.96336
3600	3900	6282.40448	6227.51301	7476.69116	6889.91847	6882.59248	6910.01131	7339.03969	6939.50948	7743.29014	6564.34899	7668.08604	6312.04546	7437.15205	6854.4088	7206.10804	6835.79287	7218.59213	6611.73232	7428.6615	8242.77379	6017.77955	7310.44612	7547.86104	7357.65575	6271.77507	5452.45766	6598.65748	5465.51329
3900	4200	6180.93015	5816.19643	6818.30046	6249.37977	6567.3906	6586.90142	6115.58443	7006.78839	7386.80566	6195.89473	7798.99432	6002.12586	7133.76364	5636.82516	6819.5156	5923.61872	6857.18437	6289.05064	6848.16855	6896.38428	5931.40472	7195.17205	7737.41182	7447.61356	5699.80107	5549.58092	6557.36634	5907.6727
4200	4500	4857.6417	5967.67367	5946.6939	5276.40474	5802.93526	5751.80293	5422.32025	6552.56646	6422.94966	5253.89217	7045.58292	5202.8264	6070.99944	5143.98928	5763.61596	5234.85252	5811.12358	5379.60935	5976.79681	6044.54689	4885.87549	6424.51536	7003.1814	7432.24921	6130.22712	5630.26382	5363.89352	4580.35742
4500	4800	4445.78293	5436.63605	6268.14284	5609.19387	6326.4512	5329.85467	5985.54719	6085.74526	6460.38657	5456.07878	6627.82362	5578.53009	6308.50339	5968.58988	6191.60097	5799.52642	6206.79745	5544.8795	6246.8905	6483.29728	5248.82641	6001.7513	7106.53654	6441.14384	5239.79979	4683.63524	6251.90337	5105.57516
4800	5100	5308.06784	5717.88086	5520.55119	5198.68537	5433.62061	5169.05955	5675.15584	5621.068	6134.22752	5032.64396	5813.90427	5538.48083	5518.73991	4538.65383	5465.91202	4649.70719	5623.19061	5061.24431	5744.51747	6856.44102	4889.9014	5540.66312	5920.64974	5443.35536	4982.09946	4975.08589	5964.47614	5078.09041
5100	5400	4637.19933	4631.57594	5308.75246	4743.06619	4762.74838	4636.45588	5705.51917	4783.25589	6080.12184	4869.25603	5756.33412	4612.86093	5042.09007	4109.26832	5192.33251	4429.14834	5390.17449	4622.25536	5610.97513	5760.04775	4867.39441	5474.28053	4799.5946	5056.34413	4385.81433	4283.55839	4594.13913	4130.04508
5400	5700	4463.74128	5088.50326	5426.51137	4928.01076	5506.08411	5176.89778	4501.03981	5202.47837	5324.97112	4881.89354	5490.32091	5292.82802	5479.62986	4986.03266	4943.41246	5015.58187	4967.58017	5086.00537	4990.61528	5795.58012	4533.83535	6057.74031	6764.0682	6853.18964	4599.76588	4693.40428	4789.52111	5220.68926
5700	6000	3548.16636	3868.47671	5004.53339	4630.92008	4113.48677	4608.06186	4411.15439	4915.18702	4802.41209	4091.11572	6030.32812	4579.06087	5808.72104	4294.67571	4777.06577	4472.92835	4780.71488	4159.42444	4980.34598	4954.72699	4624.70189	5164.04986	4998.64876	3715.83603	3737.55764	3362.91538	4447.1454	3857.82773
6000	6300	3621.64206	4259.22588	4173.9783	4582.4615	3996.5628	3991.72552	4401.84522	4540.43401	4758.77927	4435.16498	5383.4461	4567.16263	4636.54449	5050.78813	4217.24064	5019.02855	4372.92246	4542.71451	4514.56051	5671.06806	3825.82995	3669.74197	3584.77629	3828.53532	3412.69062	3619.60221	3009.90269	4228.79096
6300	6600	4010.3391	4055.03338	3231.34054	4640.98973	4188.7645	4955.65254	4076.25197	5286.75738	4993.32515	4662.6197	5120.27132	5127.0929	3884.22318	5332.36789	4270.1109	5123.83508	4050.67491	4948.84474	4156.68354	4149.62026	3305.12737	6534.38433	4071.79958	4962.33985	4216.25758	3436.51549	3840.68472	3459.03965
6600	6900	4020.48095	4128.03682	3502.04029	3724.82029	4666.95969	3418.53003	3758.98246	3062.99007	4105.83525	4160.02345	4478.07322	3577.82924	3619.54024	3213.35093	3680.07652	3593.80343	3688.27635	3388.97156	3740.09048	4558.78741	3816.62429	4280.25535	4783.24532	5015.0291	3673.38387	4212.92776	3818.79833	4194.88182
6900	7200	3730.49461	2243.97597	5253.12483	4178.55629	4301.00113	4181.74034	4097.91814	3743.81159	5494.12118	3249.3391	5191.38978	3768.62031	4807.30292	2906.92577	5087.97567	3260.00521	5026.24264	3380.90803	4854.5824	4685.99818	3284.55902	4290.62837	4157.77035	3431.37688	2857.30732	2058.99213	4961.37073	2204.56597
