frame_start	frame_end	parasubiculum	HATA	fimbria	hippocampal_fissure	HP_tail	presubiculum-head	presubiculum-body	subiculum-head	subiculum-body	CA1-head	CA1-body	CA3-head	CA3-body	CA4-head	CA4-body	GC-ML-DG-head	GC-ML-DG-body	molecular_layer_HP-head	molecular_layer_HP-body	Lateral-nucleus	Basal-nucleus	Central-nucleus	Medial-nucleus	Cortical-nucleus	Accessory-Basal-nucleus	Corticoamygdaloid-transitio	Anterior-amygdaloid-area-AAA	Paralaminar-nucleus
0	30	890.34761	592.49697	759.74309	869.02545	557.15335	830.14973	1063.09979	1223.68834	608.13217	896.43005	577.06319	401.55839	549.53496	629.54985	608.81563	716.90191	641.34405	972.81013	653.1516	633.38184	920.84947	661.73994	598.43846	626.86324	787.00812	678.04916	1114.76759	769.04782
30	60	8594.01442	7777.5352	8664.22464	8084.3521	8423.91731	8806.19657	8533.88052	6658.57485	7974.01347	7696.11962	6278.24267	7351.75369	8172.62184	8314.71832	8132.87164	8790.88849	7756.33921	7822.64655	7815.86375	5080.7551	6269.743	7142.91866	5804.691	5738.43544	7108.13332	6830.94317	10380.44376	5873.65151
60	90	17465.89264	15052.98472	16410.71331	18218.63547	17222.37731	17367.66829	16157.91725	14886.62273	17109.84111	16017.92951	14853.39926	20035.47498	16179.75853	17391.5658	16413.24952	17149.30925	16354.73507	16778.76465	16208.07168	13047.84443	14645.11208	14748.84778	12925.75651	12856.43634	14468.88429	12769.40979	18893.7926	15467.79595
90	120	27698.6671	23585.38864	27337.40213	26477.91725	23328.60763	30109.18305	24710.17446	25250.65322	26626.09473	25216.11735	20849.47505	27818.93804	24723.4496	27837.83492	26211.65737	27850.58574	25781.84489	27286.10942	25294.81301	22664.90695	24984.49248	24171.51698	18897.11947	19237.44705	22975.39488	20427.49756	23370.04856	26821.34907
120	150	28471.64928	30224.20539	33331.56295	31665.92309	30669.06869	32962.26983	28465.75286	31393.32153	31829.39902	30300.34914	29186.12476	32632.13584	31978.54532	31922.51721	34103.8642	31676.88694	33041.81914	32006.42072	31639.36664	29342.31739	30647.7717	28525.76477	24936.45052	25342.13354	30038.30993	28716.64376	29875.72905	31448.14775
150	180	28935.87317	26695.33181	32150.85969	30190.6752	32932.96887	32636.95223	30161.47361	35645.96905	32682.197	29540.84199	26787.89162	30296.6759	29094.09701	33957.03234	31662.09593	32597.23867	31487.5314	32779.55152	30619.23564	31245.47185	30947.38697	31761.41036	29718.69173	30238.12594	30768.10636	27426.27366	30169.90807	31781.56504
180	240	27388.72942	26300.08383	31492.20481	29880.4982	29288.09961	33419.91673	28667.69481	33409.49004	31956.94849	29506.6029	27932.13679	28287.47348	29752.27331	30879.62363	31711.38012	30880.66617	31151.85242	31644.64337	30331.10566	31581.90973	31827.12673	31534.30729	27462.2915	27658.82024	32068.32699	26279.73041	28311.7366	29543.95381
240	300	27386.78275	26700.50277	29940.92655	27039.45164	28178.86683	29272.05626	28052.15914	30699.09867	28548.13179	27885.84191	24414.99684	26097.90144	27397.52373	27594.58274	29361.99303	27893.58733	28642.85516	29155.03273	27912.00988	29058.20678	30670.06001	29920.1248	23668.30225	24272.68041	28112.62972	25328.79248	29706.05166	30916.75723
300	360	26240.313	22967.78166	28593.60893	28050.5297	25921.21895	29758.61567	26287.78664	29027.09946	28520.68048	28106.10777	24479.96122	27246.84431	25854.35055	29811.33746	29001.88883	29206.98977	28481.41891	29681.25401	27577.80503	29261.40841	29853.18624	25051.7477	22402.19971	22210.92376	25371.32234	22971.48653	29708.71895	29249.12441
360	480	24871.68977	21203.18589	26894.14321	25142.53664	23728.79122	27030.11316	23120.32054	26932.0115	25971.96	24563.92245	23062.51076	22336.05353	24686.11759	25386.09783	26124.04703	24906.01381	25746.40033	26143.39821	25196.6246	28403.83752	26968.01002	23630.01112	22772.00553	22138.73835	24828.17298	22780.00704	24147.65389	27662.76416
480	600	21319.72198	21562.79458	23183.63339	22782.02153	21790.77338	24133.5279	22448.58826	23877.35982	23550.5574	22269.96542	21159.92395	22371.35003	21642.41774	24021.38879	23611.37312	23749.77967	23315.41187	23591.05616	22955.47035	24195.54832	24577.88887	21822.78395	21570.13721	21179.06698	24356.00383	22266.39629	21218.92585	24923.94583
600	900	18961.51426	18496.7194	20756.81237	19394.53046	18969.69793	21500.83239	18405.94787	21423.08853	19894.93615	19470.51623	18846.67144	18060.25199	19304.77579	19409.31724	20066.24393	19384.61112	19930.59085	20440.61235	19603.10729	21727.31303	21327.64	21169.092	20444.04134	20203.37363	20068.12349	17982.13878	19693.61352	21349.7282
900	1200	15372.74392	16450.44881	18229.9143	16806.6927	15700.95827	17346.47441	16791.83064	17488.93769	17731.58625	16443.53516	15253.00145	16141.96183	16512.5046	16941.82523	17103.48084	16811.22545	17091.30491	17035.91734	16824.25161	19442.45897	17491.38222	17293.41111	18798.09489	18517.54724	17440.46738	15954.79201	17049.54795	16533.7926
1200	1500	12468.98105	14382.28073	16635.09031	14065.68805	14021.60802	14040.03928	14459.19731	15096.03082	15039.70752	14278.2523	14102.15354	14407.89123	15292.59913	14535.13766	15267.02956	14245.31274	15227.43431	14674.17483	14975.30185	16813.6244	14690.26271	15338.86271	15477.95654	15174.25539	14727.85535	13748.13111	14520.65366	14194.04563
1500	1800	12715.43735	12155.19426	14209.15704	12840.49352	12821.72389	14010.30535	12478.49377	13157.76239	13536.68059	12701.34816	12964.41779	12874.68233	13467.04246	12759.1757	13580.70537	13089.56193	13619.94357	13006.25874	13344.2757	14208.36378	12408.63724	15236.08494	15444.75057	15270.76566	13026.78308	11589.49273	11690.13935	11440.03296
1800	2100	9770.86381	12249.31505	13552.75385	10316.0278	11048.42866	10592.03533	10724.81457	12336.05462	11749.12465	11188.70092	12332.03115	9929.61087	13069.71658	9903.90765	12624.14815	10210.24738	12508.33254	11040.33113	12313.8431	13251.34096	10726.32252	13920.53158	13728.25659	13660.1063	11693.914	10656.00187	10769.42949	10726.00752
2100	2400	8115.15805	9407.74053	12013.26497	9934.27719	10091.6547	9759.67289	9862.33547	10107.55604	10755.95668	9131.67366	11162.60178	10172.45047	11683.82212	9368.1651	11352.01437	9267.93636	11235.28362	9412.26729	11041.08791	11351.40466	10595.46183	12498.83659	13320.38639	13258.08228	10887.41835	9587.29218	11101.18609	8839.83612
2400	2700	8551.26714	10244.56689	10830.22018	9115.03211	8420.54896	9020.28875	9206.6259	8723.65462	9349.93232	9258.49625	9579.69859	9768.93925	10452.50864	8942.73518	9727.49099	9321.43462	9769.0807	9076.93651	9650.74853	10602.43777	8789.02943	10738.46079	10642.8221	10644.89366	9694.53577	8801.86229	9577.27408	7469.6792
2700	3000	7687.00593	9971.22793	11251.11778	8593.25184	8174.78176	7548.64113	8765.45581	7462.99747	8962.96463	8750.75895	9459.86874	9481.92446	10673.15758	8142.27315	9834.30774	8402.06109	9760.22141	8243.86494	9588.03239	8740.63903	7863.83908	9075.08734	9434.41219	9574.68352	8952.96533	8104.14201	8055.49177	7177.21722
3000	3300	7154.24908	8401.94723	10429.53183	7739.09661	7215.93803	7329.61942	8031.13201	7271.53201	8097.98149	7539.4973	8227.60016	8123.57523	9549.65915	7617.57537	9067.57093	7846.95548	9009.48367	7349.09778	8663.87321	9543.33099	6999.7396	8640.54278	9362.15271	10180.38001	7601.37744	6903.92018	9622.79371	6282.40679
3300	3600	6778.11959	7219.81827	8108.48946	7205.93554	7483.84153	7778.69166	6801.30526	7416.78706	7184.91288	6427.01506	8740.49316	8036.09363	8832.24955	6904.5128	7926.49613	6864.04037	7802.94877	6788.30063	7749.25328	6916.16056	6770.91196	9134.5468	8973.17883	8812.50349	7931.77976	7672.33978	7884.43834	5916.79454
3600	3900	6577.526	7014.10343	9256.25825	5567.84035	6389.30447	5477.429	6583.92619	5677.04962	7007.35352	5454.08074	8135.87757	5250.84812	9189.47427	4705.34247	8057.42358	4936.46262	7864.548	4983.30873	7879.02421	6837.7342	5699.71167	6337.59211	7677.387	8459.91876	7068.73557	7487.12883	5973.51251	5296.06231
3900	4200	6388.35228	7047.1474	7687.80872	6070.45853	6648.3532	6138.47363	5029.51687	6367.4975	5945.04559	6702.19781	6639.41263	6105.23102	8079.23203	6006.35905	6648.02325	6223.03499	6474.03938	6323.9082	6307.03801	6647.36382	5262.25043	7016.31945	6334.25708	6500.69992	5501.55242	5433.25768	7456.13237	5164.1472
4200	4500	5447.94701	5885.24275	7144.02666	6509.26982	4927.17357	5271.78781	5292.32748	5912.37068	6593.6254	5797.44815	6605.23959	6891.16305	7483.91019	6034.39589	6375.66197	6118.37392	6403.22635	5727.14353	6294.18166	5939.87317	5363.11132	6590.51804	6576.79183	6438.51691	6869.8741	6422.12832	5134.50038	4282.01304
4500	4800	4488.02684	7192.43301	7010.70206	5428.23558	5739.05761	4505.32376	5728.08637	4662.31344	6421.94035	5046.36518	6978.55608	5756.83909	7240.27464	5263.10809	6714.5676	5100.37467	6565.019	4853.64802	6702.34758	6575.08671	4301.87251	6132.93813	6513.56144	7295.03921	5748.75621	5448.23181	3959.17438	3832.66454
4800	5100	4890.14857	5299.49305	7669.6557	5446.92967	5884.39937	4802.62083	4564.66999	5223.95582	5322.066	5853.14009	7583.38542	5157.13352	7463.36101	5028.96609	6505.51357	5317.60187	6279.8939	5437.77922	6181.98792	7318.64784	6146.91252	5807.16423	6279.59212	5880.3848	6375.06782	5717.74844	7150.13825	5115.0271
5100	5400	5657.96674	4057.23004	7334.20983	6241.74719	7194.28884	6841.81481	5393.69668	5926.09823	6468.27002	5128.41584	7690.46739	6336.13524	8030.79221	6299.31424	7917.64203	6175.53997	7571.86145	5645.92769	7326.04219	5662.57189	3560.13862	5174.86843	4683.76304	4837.31792	3502.96264	3788.31565	4406.99087	3621.48766
