frame_start	frame_end	Left-Cerebral-White-Matter	Left-Cerebellum-White-Matter	Left-Cerebellum-Cortex	Left-Thalamus	Left-Caudate	Left-Putamen	Left-Pallidum	Brain-Stem	Left-Hippocampus	Left-Amygdala	CSF	Left-Accumbens-area	Left-VentralDC	Left-choroid-plexus	Right-Cerebral-White-Matter	Right-Cerebellum-White-Matter	Right-Cerebellum-Cortex	Right-Thalamus	Right-Caudate	Right-Putamen	Right-Pallidum	Right-Hippocampus	Right-Amygdala	Right-Accumbens-area	Right-VentralDC	Right-choroid-plexus	AirCavity	Skull	Vermis	Pons	CSF-ExtraCerebral	Head-ExtraCerebral	ctx-lh-bankssts	ctx-lh-caudalanteriorcingulate	ctx-lh-caudalmiddlefrontal	ctx-lh-cuneus	ctx-lh-entorhinal	ctx-lh-fusiform	ctx-lh-inferiorparietal	ctx-lh-inferiortemporal	ctx-lh-isthmuscingulate	ctx-lh-lateraloccipital	ctx-lh-lateralorbitofrontal	ctx-lh-lingual	ctx-lh-medialorbitofrontal	ctx-lh-middletemporal	ctx-lh-parahippocampal	ctx-lh-paracentral	ctx-lh-parsopercularis	ctx-lh-parsorbitalis	ctx-lh-parstriangularis	ctx-lh-pericalcarine	ctx-lh-postcentral	ctx-lh-posteriorcingulate	ctx-lh-precentral	ctx-lh-precuneus	ctx-lh-rostralanteriorcingulate	ctx-lh-rostralmiddlefrontal	ctx-lh-superiorfrontal	ctx-lh-superiorparietal	ctx-lh-superiortemporal	ctx-lh-supramarginal	ctx-lh-frontalpole	ctx-lh-temporalpole	ctx-lh-transversetemporal	ctx-lh-insula	ctx-rh-bankssts	ctx-rh-caudalanteriorcingulate	ctx-rh-caudalmiddlefrontal	ctx-rh-cuneus	ctx-rh-entorhinal	ctx-rh-fusiform	ctx-rh-inferiorparietal	ctx-rh-inferiortemporal	ctx-rh-isthmuscingulate	ctx-rh-lateraloccipital	ctx-rh-lateralorbitofrontal	ctx-rh-lingual	ctx-rh-medialorbitofrontal	ctx-rh-middletemporal	ctx-rh-parahippocampal	ctx-rh-paracentral	ctx-rh-parsopercularis	ctx-rh-parsorbitalis	ctx-rh-parstriangularis	ctx-rh-pericalcarine	ctx-rh-postcentral	ctx-rh-posteriorcingulate	ctx-rh-precentral	ctx-rh-precuneus	ctx-rh-rostralanteriorcingulate	ctx-rh-rostralmiddlefrontal	ctx-rh-superiorfrontal	ctx-rh-superiorparietal	ctx-rh-superiortemporal	ctx-rh-supramarginal	ctx-rh-frontalpole	ctx-rh-temporalpole	ctx-rh-transversetemporal	ctx-rh-insula
0	30	569.1897583007812	593.6746215820312	690.6495971679688	651.0169677734375	752.9915771484375	863.0325317382812	598.1310424804688	919.6860961914062	761.395263671875	723.9935913085938	561.4835205078125	1060.9864501953125	756.33203125	695.9246826171875	579.3914794921875	529.1707763671875	768.7807006835938	945.7523803710938	804.6907348632812	1055.7451171875	893.7785034179688	869.6397094726562	417.8160400390625	563.647216796875	901.6098022460938	585.0087890625	239.4039764404297	352.3896484375	551.7431640625	692.88330078125	799.3768920898438	213.10301208496094	1005.3728637695312	884.6568603515625	839.6476440429688	848.8474731445312	614.2904052734375	886.0794677734375	735.9658203125	685.3949584960938	979.2864990234375	625.4031982421875	874.4417724609375	894.6331787109375	957.8375854492188	621.1953735351562	884.0463256835938	722.103759765625	879.1685791015625	826.4812622070312	878.77294921875	871.509033203125	813.96435546875	929.4804077148438	718.9762573242188	738.9137573242188	1078.3271484375	762.6243286132812	836.0908203125	674.9465942382812	845.4730224609375	862.2026977539062	659.5362548828125	608.5657958984375	1570.5982666015625	1299.9085693359375	531.0110473632812	1042.78564453125	797.5645751953125	758.5449829101562	669.3951416015625	799.0779418945312	655.9639282226562	700.1251220703125	813.242431640625	625.6448974609375	971.6090087890625	915.0445556640625	899.0353393554688	738.1101684570312	811.0109252929688	613.9552001953125	1166.9874267578125	848.653564453125	896.215576171875	822.1697387695312	763.953125	974.3059692382812	762.7293701171875	785.6885375976562	927.0118408203125	842.1882934570312	836.2093505859375	627.510009765625	1007.0364990234375	860.1317138671875	881.816162109375	694.9937133789062	1561.143798828125	1078.087890625
30	60	6212.05859375	6746.26123046875	8405.263671875	9035.509765625	8132.09375	9502.1806640625	6893.970703125	7360.50537109375	7980.2802734375	6016.9501953125	5388.681640625	9101.28515625	8002.1357421875	6888.4169921875	6210.44580078125	6700.2294921875	8393.330078125	9253.6357421875	8503.7109375	10034.380859375	7137.640625	7235.0419921875	7559.94970703125	8358.8759765625	7383.734375	6410.06494140625	1734.809326171875	2694.435546875	7119.08447265625	7147.61474609375	7981.0	1498.4129638671875	9277.4765625	8824.072265625	9295.2578125	9495.8828125	6406.44189453125	8115.9189453125	8439.5107421875	7733.67236328125	9419.16796875	8093.5615234375	8780.4072265625	9359.9228515625	9724.666015625	7498.38916015625	8889.880859375	8475.4228515625	9771.859375	9492.2626953125	9691.5302734375	9286.193359375	8616.7294921875	10607.017578125	8530.8974609375	9727.7197265625	8539.3330078125	9615.40234375	9172.609375	8290.44140625	8559.44921875	9191.32421875	10172.3759765625	6809.81005859375	11459.40234375	9416.5537109375	8635.8935546875	9190.546875	10400.9990234375	9393.3828125	7674.82080078125	7931.57177734375	8728.3564453125	7788.9189453125	9845.4638671875	8138.36962890625	8439.59375	8456.2255859375	9178.041015625	8488.76953125	7790.2158203125	8521.083984375	10749.837890625	10167.5166015625	9946.6806640625	9578.5869140625	8646.3203125	10205.9423828125	9058.6533203125	9399.353515625	9048.8779296875	9941.595703125	9456.314453125	7740.09033203125	9492.6435546875	9063.3466796875	9627.4853515625	6114.14404296875	12212.6796875	9356.8046875
60	90	14064.4453125	14639.1015625	18788.09765625	20323.693359375	18834.26953125	20856.35546875	14887.7900390625	15190.056640625	16385.609375	13634.720703125	11563.0615234375	20301.4609375	15846.1728515625	14599.5498046875	14123.486328125	15089.21484375	18184.048828125	21148.115234375	18790.69140625	22373.6796875	15769.0703125	16567.677734375	14166.697265625	20900.646484375	16604.412109375	13052.6953125	4038.340087890625	5774.37109375	17851.03515625	15593.2734375	16884.58984375	3254.655029296875	21476.099609375	18681.3984375	21477.8359375	21264.775390625	14060.255859375	18936.005859375	19237.900390625	17142.06640625	22431.66796875	18645.8359375	20169.783203125	21099.263671875	20422.857421875	17752.986328125	20405.796875	19742.857421875	21701.453125	19806.880859375	21452.6796875	21417.92578125	19547.25	23568.08984375	18730.80078125	21997.84375	17729.15625	21186.28515625	20251.05078125	19198.6484375	18028.134765625	20222.30859375	21863.255859375	15130.3603515625	24042.599609375	18853.107421875	20101.125	18337.236328125	22447.134765625	21451.14453125	14848.27734375	18140.16796875	19623.591796875	17115.849609375	22989.92578125	19037.001953125	19958.896484375	20031.158203125	20035.705078125	18829.109375	17269.099609375	18703.060546875	24304.0703125	22564.111328125	20543.404296875	23355.423828125	19574.68359375	22251.736328125	19618.447265625	21449.701171875	19892.66015625	22245.56640625	20867.408203125	18328.427734375	19234.486328125	20088.68359375	21627.181640625	15033.75390625	26750.025390625	20316.34375
90	120	22251.423828125	23576.6953125	29205.529296875	31497.76171875	29620.146484375	33738.875	25489.58203125	24117.02734375	25445.814453125	22446.00390625	17539.9296875	32928.1640625	25861.099609375	19799.740234375	22264.400390625	23590.623046875	29392.802734375	32440.869140625	29780.630859375	33712.58203125	25196.80859375	25299.685546875	25845.18359375	32450.40234375	26066.203125	19963.30078125	5942.20361328125	8634.8583984375	26804.498046875	25273.8359375	26002.2421875	4754.5859375	32371.443359375	27482.029296875	34317.8359375	33757.40625	23256.501953125	29580.4375	30229.783203125	28244.296875	35406.1953125	30172.435546875	30690.892578125	33181.921875	32013.2109375	28424.296875	31028.1640625	31232.23828125	33434.42578125	32853.734375	33687.37890625	36147.4375	30407.328125	34280.0234375	29849.44921875	33989.3515625	29365.517578125	34395.98046875	32661.82421875	29892.82421875	28580.80078125	31980.95703125	35346.91015625	23205.05078125	37307.4453125	28311.2890625	29196.033203125	29850.390625	35809.16796875	32458.9453125	22797.576171875	29421.650390625	30146.302734375	27606.716796875	34425.890625	31230.91796875	30608.2890625	32660.42578125	31844.900390625	29712.98828125	27517.84765625	29927.68359375	36888.0703125	33845.7578125	34181.15625	34365.6875	30676.349609375	34655.76171875	31121.978515625	33016.8125	30390.4609375	35265.56640625	33430.44921875	28400.8359375	29982.546875	31125.7421875	38090.80859375	24094.720703125	40093.453125	29972.8671875
120	150	27854.05859375	31463.634765625	37416.20703125	39026.8046875	39399.8984375	40297.96484375	31065.390625	28338.30859375	30806.84375	29163.86328125	21336.572265625	39917.87890625	30101.248046875	21656.58984375	27852.306640625	29588.361328125	37854.31640625	38588.11328125	38011.1015625	43507.83984375	32408.486328125	30600.529296875	28356.51953125	37762.01953125	32309.82421875	23925.76953125	7468.04931640625	10662.314453125	34969.74609375	32006.927734375	31391.9375	5868.45751953125	41230.125	33564.953125	43066.4140625	41240.73046875	28842.34765625	37970.84765625	37823.2265625	34904.30859375	41387.64453125	37486.99609375	38548.91796875	39987.23046875	39789.98046875	37143.3046875	34057.55859375	36796.09375	41958.70703125	38932.23046875	42605.13671875	44440.30859375	38284.796875	44072.6875	38171.95703125	41824.48046875	34166.8515625	43031.3125	40601.85546875	37194.2421875	35500.9609375	40487.15625	44654.07421875	30025.240234375	46839.640625	35514.5078125	39848.5625	34691.9609375	44001.8984375	39463.72265625	28702.564453125	36050.55859375	38583.7109375	35430.51171875	42056.56640625	39301.9765625	37096.7421875	39396.73828125	38389.07421875	37540.72265625	33672.28515625	38817.1953125	43146.734375	42192.640625	42678.22265625	43991.16796875	38691.98046875	43267.58984375	38492.421875	40274.33984375	37367.2421875	43734.84765625	41038.9453125	35839.3359375	36984.5234375	38793.09765625	43984.59765625	28908.34375	49659.25390625	36716.6328125
150	180	28157.162109375	31048.46875	37978.99609375	40988.890625	36563.59375	42650.56640625	33306.5703125	28344.95703125	30768.1875	30033.494140625	20596.82421875	39937.8046875	31748.095703125	21934.478515625	28489.658203125	29882.21484375	37900.25	41432.72265625	37578.95703125	44561.3671875	32691.3203125	30934.623046875	29605.1328125	40521.9140625	32799.87109375	22013.822265625	7587.11669921875	10750.384765625	32807.17578125	32654.671875	31178.044921875	6073.751953125	41377.90625	35274.41015625	41886.3125	41316.51953125	29819.45703125	37795.54296875	38556.44140625	35303.09765625	43134.65625	38752.8359375	39005.58984375	40123.1015625	40478.31640625	37571.91015625	35609.23828125	39266.24609375	42010.44140625	40204.5859375	42597.8125	42882.62890625	37784.90234375	44367.4140625	38376.12109375	42708.22265625	34981.51953125	43700.7578125	41149.66015625	37833.20703125	35981.16015625	40185.90625	45312.1015625	28945.185546875	47044.08203125	34683.22265625	39697.6171875	33684.3671875	45159.21875	39493.13671875	28091.681640625	36724.4296875	38728.59765625	35919.765625	41588.1640625	40796.62109375	37290.82421875	39856.79296875	38680.73828125	39145.00390625	33533.5546875	37938.44140625	45349.6484375	42399.4296875	40900.0234375	45681.44921875	39262.703125	43542.6328125	40322.859375	40538.08203125	36355.0	44375.61328125	41532.50390625	36629.44140625	38551.39453125	39533.25390625	45716.296875	28562.212890625	46677.4609375	37065.4375
180	240	27497.5703125	29968.515625	36707.4140625	38778.6875	35872.3828125	42572.71484375	30303.00390625	27755.2890625	29661.3515625	30842.86328125	19856.736328125	38645.83984375	30494.623046875	20050.25	27700.44140625	29958.5703125	36846.33984375	39268.34765625	36440.36328125	41337.5859375	32654.251953125	29380.041015625	28886.826171875	37775.8671875	31211.82421875	20197.822265625	7284.3466796875	10588.1982421875	33307.66796875	31001.23046875	29676.61328125	6106.75634765625	39579.17578125	33914.0078125	40789.12109375	39109.09765625	28337.13671875	36863.53125	37562.49609375	35382.5859375	41004.765625	37271.94921875	37917.3203125	39150.7890625	38241.47265625	36362.6484375	35107.6953125	37050.55078125	40904.3828125	37216.5546875	41201.0546875	42785.8046875	36784.7578125	41688.23046875	37194.01953125	40985.94921875	34833.16015625	42016.49609375	39818.06640625	36740.19921875	35060.328125	39517.75390625	40434.91015625	29353.138671875	43787.875	34530.6171875	39026.14453125	33839.015625	43233.953125	38847.13671875	27496.369140625	35297.515625	37917.8984375	35364.56640625	40334.11328125	38572.83984375	36235.37890625	37483.08984375	37534.9296875	36817.34765625	32344.890625	37173.50390625	43345.0625	39637.1875	39092.26171875	42170.984375	37378.53125	42436.1171875	38347.015625	39528.76171875	36919.9453125	42802.85546875	39717.4140625	35022.65625	36356.26171875	37973.47265625	42687.6015625	28830.30078125	44561.4296875	35437.41796875
240	300	26106.669921875	28964.71484375	34664.97265625	37521.9140625	34393.546875	39599.1640625	30885.388671875	26315.65234375	27773.12890625	28460.99609375	18452.337890625	39929.4609375	29339.28125	17428.5234375	26388.62890625	27543.0859375	34577.5234375	38532.484375	34137.4921875	38772.56640625	30860.28125	28074.4296875	30833.87109375	35106.16015625	30285.025390625	18240.07421875	7198.7646484375	10467.3203125	31078.365234375	29601.947265625	27485.265625	6108.96337890625	37447.96484375	32783.1484375	37154.0546875	35462.046875	27327.169921875	35447.04296875	34640.796875	33558.02734375	37104.46484375	34606.87109375	35522.13671875	36188.15234375	35506.20703125	34140.32421875	32800.5546875	34493.25390625	37745.296875	36001.7578125	38212.55078125	39002.05078125	34357.30859375	38370.62109375	35027.765625	37504.8828125	33681.47265625	39124.234375	36750.59375	33494.578125	33228.50390625	36348.58203125	38909.21875	27800.90234375	39550.8671875	32167.259765625	36553.640625	32910.078125	39393.6484375	35702.953125	26910.193359375	33569.09765625	35102.6484375	33327.265625	37000.3671875	35498.8125	34150.4765625	35222.0546875	35157.87109375	34647.73828125	29670.517578125	34341.87890625	39287.28515625	37665.734375	36931.4140625	39404.76953125	34949.23828125	38822.703125	35945.7578125	36508.4375	35127.63671875	40025.4375	36971.0625	32558.6953125	34366.80078125	35596.11328125	39269.0703125	27714.16796875	40914.43359375	34040.90234375
300	360	24548.845703125	27245.794921875	31987.404296875	35294.921875	31339.48046875	36027.16015625	28918.896484375	25127.458984375	27174.998046875	27279.931640625	17055.02734375	35571.3984375	27892.791015625	15683.330078125	24799.6171875	26904.79296875	32247.759765625	34726.8125	31212.919921875	37476.7734375	29639.38671875	25966.1796875	27989.189453125	38080.703125	28187.19140625	17044.1796875	7093.00634765625	10053.28515625	28970.9375	27567.576171875	25113.484375	6102.736328125	33944.24609375	30797.11328125	34010.328125	32040.869140625	27484.298828125	33108.65625	32034.779296875	30938.232421875	33605.25390625	31861.626953125	32480.875	32216.962890625	32769.6796875	32231.248046875	30825.908203125	31603.216796875	33724.8359375	32761.767578125	35020.47265625	35098.8046875	31137.1875	35617.296875	31747.19140625	34494.16015625	31836.09375	35286.9609375	33514.13671875	30679.87890625	30425.328125	33612.94921875	34463.42578125	27538.162109375	34993.3359375	30023.625	32890.84765625	29346.9296875	36380.05859375	33217.49609375	24440.396484375	31240.533203125	32464.99609375	30585.2265625	33790.21875	32511.69140625	32085.025390625	32293.720703125	33293.48828125	31797.49609375	28630.001953125	31075.689453125	35737.2890625	34287.28515625	33176.89453125	34986.26953125	31530.703125	36120.43359375	33358.4296875	33377.3984375	32663.03515625	36869.05078125	33639.55078125	30401.841796875	31486.08984375	32600.529296875	36204.34375	25917.78515625	37272.54296875	32611.6875
360	480	22544.009765625	25120.587890625	28738.17578125	31830.58203125	27541.732421875	32871.44140625	27229.541015625	23381.009765625	24402.123046875	26069.966796875	15612.357421875	31755.947265625	26517.17578125	13722.4248046875	22737.806640625	24233.65625	28867.681640625	32924.60546875	27069.37109375	33522.04296875	28692.630859375	24250.8984375	24433.275390625	32236.419921875	26486.365234375	14982.4052734375	6572.484375	9805.794921875	25501.234375	25687.59765625	22277.296875	6109.26904296875	30587.12890625	27846.99609375	30099.826171875	28931.833984375	24664.306640625	29561.5234375	28414.95703125	28017.822265625	29601.572265625	27921.39453125	28981.431640625	29222.8671875	29453.0546875	28293.3984375	27744.82421875	27572.55078125	30260.845703125	29547.56640625	30503.560546875	30136.796875	27446.65234375	31068.3203125	28223.4765625	30303.458984375	27971.412109375	31305.03515625	29605.27734375	27146.41015625	27514.421875	29545.93359375	32068.71484375	25006.921875	31737.5703125	27345.40234375	29886.970703125	27637.478515625	31567.703125	28654.953125	25137.166015625	28338.984375	28629.0546875	27852.048828125	29627.986328125	28975.787109375	28662.61328125	28331.78125	29830.2109375	28491.23828125	26338.25390625	27915.2265625	31477.208984375	30764.6328125	29982.224609375	30484.787109375	27616.396484375	31191.287109375	28816.21875	29615.615234375	30795.607421875	32640.126953125	29712.109375	26223.40625	28150.365234375	28783.91015625	33420.75390625	25047.0	33018.37890625	29098.642578125
480	600	20427.845703125	22403.763671875	25149.23046875	28698.453125	23454.615234375	28298.689453125	25569.556640625	21170.556640625	22356.6640625	23783.138671875	13805.9765625	27231.771484375	24872.955078125	12174.728515625	20668.375	22011.30859375	25058.01171875	29172.251953125	23478.1953125	29462.654296875	25858.708984375	22030.033203125	24146.43359375	27382.755859375	24708.53515625	13309.2861328125	6401.93505859375	9516.0751953125	21894.59765625	23686.90625	19162.1796875	6167.48486328125	26067.0625	24111.740234375	25412.25390625	25015.298828125	21577.978515625	25969.1953125	24578.078125	24878.115234375	25927.1484375	24261.55078125	25876.7890625	24660.701171875	25999.47265625	24868.36328125	23671.40625	24342.0703125	25669.744140625	26070.955078125	26681.78125	25660.64453125	23605.29296875	27211.77734375	24287.619140625	25875.4296875	25246.4921875	26756.0625	25365.919921875	23029.044921875	24226.513671875	25405.28515625	26591.9765625	21407.568359375	26903.65625	24429.35546875	25610.87109375	24310.205078125	26499.92578125	24329.333984375	21362.685546875	25090.97265625	24686.841796875	24851.63671875	24763.857421875	24667.375	25000.9296875	23572.435546875	25631.90234375	25118.421875	23266.36328125	23858.583984375	26596.646484375	27533.6484375	26331.517578125	24915.78125	23659.703125	26976.228515625	24945.390625	24789.580078125	26539.99609375	27862.66796875	25523.119140625	22529.478515625	24878.251953125	24539.228515625	26617.478515625	21248.12109375	28219.83984375	25752.9453125
600	900	18330.8828125	20307.326171875	20984.267578125	24718.171875	19629.17578125	24500.591796875	23103.373046875	18961.20703125	19219.98828125	20571.033203125	12158.1796875	23127.228515625	21868.33984375	11687.154296875	18507.744140625	19816.275390625	20832.46484375	25309.171875	19136.34375	24990.6015625	23424.333984375	19276.705078125	21425.138671875	22137.595703125	22436.87109375	12118.7001953125	5985.74072265625	9137.2060546875	18578.6171875	21112.212890625	15897.0078125	6295.9111328125	21419.8125	21401.869140625	20913.533203125	20217.201171875	19109.3984375	22213.859375	20653.361328125	21017.42578125	21020.2265625	20586.58984375	21491.67578125	20845.203125	21655.5	20881.826171875	20884.74609375	20001.623046875	21531.013671875	21578.005859375	22292.970703125	20927.607421875	19699.75	21982.05859375	20214.416015625	21292.5546875	21668.369140625	22296.5703125	20956.419921875	19306.85546875	20402.490234375	21270.541015625	21003.720703125	19434.94921875	22588.4296875	20920.07421875	21615.744140625	21285.748046875	21908.51953125	20199.1796875	19029.904296875	21488.40234375	20257.3046875	20956.8359375	21333.970703125	20802.669921875	21014.177734375	19982.337890625	21910.83203125	20832.142578125	19643.291015625	19865.509765625	21909.05859375	22773.548828125	21346.18359375	20533.9921875	19365.20703125	22092.447265625	20671.380859375	20532.4140625	22195.626953125	23153.80078125	21012.8125	18713.564453125	20525.923828125	20441.42578125	21757.662109375	19228.220703125	22409.419921875	22095.146484375
900	1200	16417.3984375	17920.74609375	16794.841796875	20176.57421875	15344.8251953125	19552.369140625	20004.046875	16462.4140625	16446.234375	17861.150390625	10587.1015625	19245.896484375	19234.45703125	10379.6337890625	16563.994140625	17363.2890625	16614.70703125	20658.318359375	15475.556640625	19834.751953125	20442.771484375	15911.259765625	17713.453125	18391.087890625	19585.439453125	10522.8828125	5761.11474609375	8838.7119140625	14565.5283203125	18619.732421875	13256.755859375	6481.03564453125	17953.365234375	17937.486328125	17110.3125	16968.404296875	16136.025390625	18736.794921875	17359.83203125	17803.078125	17193.345703125	17515.708984375	18154.4140625	17395.96484375	17804.97265625	17602.8203125	17459.439453125	16686.130859375	17894.041015625	17725.37109375	18494.8984375	17436.279296875	16424.134765625	18347.322265625	16813.16796875	17500.486328125	17706.02734375	18660.919921875	17034.3828125	16068.294921875	17007.748046875	17554.3515625	16621.388671875	16500.083984375	18810.92578125	17814.24609375	18127.66796875	17483.3203125	17964.765625	16917.703125	15944.7041015625	17902.0703125	16966.615234375	17742.3515625	17689.2734375	17571.681640625	17917.43359375	16921.734375	17533.203125	17234.845703125	16605.322265625	16401.033203125	17777.27734375	18560.37109375	18145.341796875	17429.017578125	16000.921875	17890.89453125	16952.7109375	16900.603515625	17872.833984375	18841.84765625	17040.572265625	15413.087890625	16802.615234375	16471.96484375	18313.205078125	16176.1416015625	18336.177734375	18871.73828125
1200	1500	15070.095703125	15809.712890625	13914.318359375	17031.302734375	13429.3642578125	16655.68359375	17771.130859375	14545.447265625	14408.708984375	15369.689453125	9861.35546875	15362.5498046875	17149.83984375	10018.556640625	15176.1337890625	15283.4873046875	13719.181640625	17148.75390625	13137.923828125	17093.681640625	18661.546875	14068.9375	15069.3408203125	14296.9716796875	17053.853515625	10204.0859375	5458.87451171875	8506.154296875	11905.525390625	16664.296875	11544.142578125	6526.63720703125	15546.05859375	15292.5263671875	14886.5654296875	14969.556640625	14384.916015625	16296.060546875	15150.044921875	15699.765625	15446.931640625	15674.2490234375	15274.51953125	15290.9755859375	15277.935546875	15485.92578125	15583.3720703125	14075.494140625	15854.2890625	15583.435546875	16093.421875	15197.8115234375	14253.7607421875	15839.779296875	14447.1025390625	15078.4912109375	15590.0869140625	16074.8134765625	14813.267578125	14109.7275390625	14674.427734375	15342.9931640625	14540.7626953125	13895.4873046875	15685.830078125	15293.2412109375	15558.93359375	14920.2783203125	15201.267578125	14962.8720703125	13777.025390625	15667.0390625	14672.142578125	15392.7958984375	15297.400390625	15412.0751953125	15269.25390625	14791.5048828125	15461.60546875	15030.990234375	14423.1337890625	14275.982421875	15759.966796875	16102.4501953125	15590.6962890625	15296.7451171875	13926.1806640625	15332.146484375	14583.041015625	14663.8876953125	15512.6083984375	16438.828125	14661.4697265625	13625.3193359375	14534.53515625	14422.0634765625	14187.53515625	13724.650390625	16007.0234375	16321.2861328125
1500	1800	14025.4228515625	13883.2490234375	11595.2666015625	14422.763671875	11527.3056640625	14496.755859375	15854.9677734375	12563.7568359375	12868.361328125	13182.0283203125	8843.7138671875	12811.23046875	14881.8984375	8843.423828125	14026.63671875	13689.55078125	11557.517578125	14449.2509765625	11353.2958984375	14561.84375	16074.705078125	12226.337890625	12888.0595703125	13037.8310546875	15403.9248046875	8901.0107421875	5359.52783203125	8300.4443359375	10227.8828125	14980.28125	10371.3515625	6580.8818359375	14063.3720703125	14148.9306640625	13295.107421875	13268.9814453125	12062.826171875	14524.3447265625	13621.712890625	13814.5380859375	13550.1474609375	14220.5791015625	14069.87890625	13873.935546875	13458.7080078125	13407.5078125	13267.037109375	12577.5361328125	14060.90234375	14078.140625	14420.6005859375	14147.3369140625	12821.1513671875	14196.78125	12998.23828125	13471.0185546875	14117.677734375	14285.474609375	13073.978515625	12623.0595703125	13299.6064453125	13856.3037109375	12478.56640625	12165.8310546875	14103.4501953125	13672.3955078125	14091.6083984375	13871.150390625	13193.4267578125	13165.517578125	12612.2666015625	13922.439453125	13002.130859375	14016.8642578125	13961.177734375	13996.75390625	13961.2705078125	13279.158203125	13561.90234375	13178.75	12767.48046875	12879.8759765625	13846.0927734375	14128.77734375	13691.25	14021.6142578125	12391.6083984375	13877.73046875	13147.8828125	13396.9482421875	13416.216796875	14439.9189453125	12796.6044921875	12034.2978515625	12794.7177734375	12900.5869140625	13264.560546875	12716.4931640625	13893.482421875	14330.4853515625
1800	2100	13070.056640625	12563.2626953125	10037.853515625	12375.5234375	10220.60546875	12720.5537109375	14497.3232421875	11165.3134765625	11238.515625	11884.55078125	8216.9267578125	10087.0146484375	13402.5810546875	8297.7041015625	13052.8583984375	11864.7861328125	9885.525390625	12565.4384765625	9843.79296875	12627.0166015625	13578.1611328125	11550.3466796875	11606.2783203125	11414.515625	13360.3564453125	8342.26171875	5022.00390625	7945.4326171875	8802.2333984375	13334.140625	9410.6552734375	6530.15087890625	13089.19140625	12574.2373046875	11734.37890625	11892.7841796875	11116.443359375	13313.2919921875	12425.6298828125	12824.3828125	12418.23828125	12983.791015625	12590.79296875	12346.244140625	12546.6787109375	12247.30078125	12132.9052734375	11590.740234375	12790.5185546875	12868.5341796875	13315.162109375	13201.6953125	11773.51171875	12534.88671875	11697.9228515625	12423.7021484375	12592.38671875	12888.08203125	11728.7158203125	11589.9365234375	11846.1796875	12609.89453125	11146.9306640625	11061.40625	12617.1923828125	12445.080078125	12935.787109375	12271.9130859375	12155.95703125	12215.828125	11911.4990234375	12827.859375	11905.3876953125	12343.0283203125	12648.2724609375	12937.638671875	12557.7890625	12396.8232421875	12221.1494140625	11919.255859375	11552.1748046875	11468.556640625	12653.076171875	12969.095703125	13084.646484375	12894.5458984375	11261.26171875	12434.89453125	11664.7548828125	11952.8759765625	12468.7197265625	12858.201171875	11456.4453125	11270.9111328125	11633.12890625	11528.0322265625	11461.361328125	11580.642578125	12878.80078125	13074.73828125
2100	2400	12108.474609375	11205.7724609375	8632.52734375	10784.2880859375	9173.2255859375	11375.056640625	12715.373046875	10093.7314453125	9947.55859375	10916.037109375	7469.4921875	9491.9375	11461.33203125	7642.09765625	12056.2314453125	10871.4326171875	8513.1591796875	10702.5380859375	9141.0166015625	11300.4501953125	12274.3701171875	9749.8193359375	9964.9248046875	9259.29296875	11946.90234375	7740.35009765625	4817.90966796875	7580.505859375	7504.50244140625	11979.716796875	8576.443359375	6316.294921875	11643.109375	11334.7705078125	11038.619140625	11091.064453125	10417.8486328125	12272.6083984375	11597.5068359375	11597.251953125	11440.5595703125	12243.9541015625	11797.220703125	11783.74609375	11433.3759765625	11337.3037109375	11053.828125	10158.6083984375	11463.2900390625	11815.5166015625	11892.0107421875	12027.5	10669.66015625	11492.1064453125	10813.8349609375	11217.6982421875	11380.833984375	11852.9287109375	10445.490234375	10766.21875	10791.412109375	11335.98828125	10338.7080078125	9587.2685546875	11592.1787109375	11033.0927734375	11357.46875	11132.634765625	11021.513671875	11040.189453125	10414.4423828125	11407.0390625	10911.13671875	11249.0625	11184.3173828125	11899.958984375	11245.662109375	11210.1728515625	11213.740234375	10920.09765625	9650.11328125	10636.169921875	11323.7080078125	11392.7919921875	11583.01171875	11605.73828125	10095.3369140625	11337.48828125	10550.6435546875	11135.9462890625	11606.380859375	11763.828125	10335.51953125	10453.748046875	10428.12890625	10493.021484375	9696.275390625	9484.525390625	11343.5341796875	11864.349609375
2400	2700	11411.599609375	9930.001953125	8222.580078125	9585.0947265625	8286.8564453125	10204.892578125	10952.9404296875	8807.0927734375	9212.6826171875	9644.595703125	7433.59130859375	8651.0166015625	10900.09375	7207.5546875	11374.7705078125	9552.6953125	7852.439453125	9480.0	8401.962890625	10324.7041015625	10889.744140625	8873.361328125	9234.4560546875	7741.8671875	10473.1298828125	6602.0048828125	4466.0068359375	7260.74169921875	7276.8193359375	11090.9296875	8111.02294921875	6406.9482421875	11423.759765625	10405.025390625	9955.6220703125	10150.6923828125	10114.59765625	11450.990234375	10526.0322265625	11390.16015625	10647.287109375	11487.4638671875	11491.857421875	11199.9521484375	10528.30078125	10479.0126953125	10035.064453125	9864.69140625	10867.541015625	11237.4677734375	11494.9921875	11341.1435546875	9944.9013671875	10766.482421875	9876.201171875	10672.7529296875	10467.08203125	10829.48046875	9682.65625	9691.6904296875	10140.3369140625	10565.6337890625	8805.3818359375	8962.1328125	11136.4111328125	10428.5556640625	11078.255859375	10227.248046875	10134.7734375	9997.880859375	9564.8828125	11003.681640625	9962.9091796875	10838.458984375	10936.990234375	11150.265625	10830.193359375	10990.2646484375	10498.8388671875	10346.1630859375	9726.28125	9612.5830078125	10840.021484375	10717.9697265625	10720.4951171875	11489.0791015625	9590.4658203125	10502.705078125	9627.9833984375	10215.2265625	10064.0771484375	10861.6650390625	9358.607421875	9248.3466796875	9910.9697265625	9775.2626953125	9511.0908203125	9123.12109375	10696.98828125	10833.4912109375
