frame_start	frame_end	parasubiculum	HATA	fimbria	hippocampal_fissure	HP_tail	presubiculum-head	presubiculum-body	subiculum-head	subiculum-body	CA1-head	CA1-body	CA3-head	CA3-body	CA4-head	CA4-body	GC-ML-DG-head	GC-ML-DG-body	molecular_layer_HP-head	molecular_layer_HP-body	Lateral-nucleus	Basal-nucleus	Central-nucleus	Medial-nucleus	Cortical-nucleus	Accessory-Basal-nucleus	Corticoamygdaloid-transitio	Anterior-amygdaloid-area-AAA	Paralaminar-nucleus
0	30	54.80397	94.02859	91.12023	137.00219	56.13312	62.17089	63.59974	164.42761	86.27672	212.01982	106.45096	219.80875	108.65393	145.42984	111.1405	143.38051	103.05436	185.16089	95.27185	261.67587	202.3459	108.0617	260.45384	226.6339	117.97944	135.45212	74.83714	324.55696
30	60	3433.20186	5662.85947	3431.13927	4007.33868	3948.64722	3378.57095	4253.53954	3153.96682	4623.58356	3647.77519	3847.68854	3960.58954	3256.5764	4335.25266	3703.56771	4066.86938	3901.29234	3682.29336	4067.34502	3006.52448	4316.88624	3925.78266	6068.42871	6212.93688	4641.70144	5343.45909	3763.64875	4623.59776
60	90	11960.27612	14087.35025	17261.11508	13612.25638	14557.83361	14702.52423	13314.9428	12715.04126	14838.48622	12577.11665	14764.72191	12157.04502	15457.67236	12455.3411	15588.61919	12442.84763	15971.5381	12999.05159	14974.89919	11266.46083	13485.03049	15433.22349	17300.26074	15549.48453	15365.53388	14135.32504	15976.33175	12865.23
90	120	19181.01104	24505.32106	29328.70328	24721.9449	26785.20346	22264.68753	25492.1867	24359.0052	27867.14337	22732.46084	24930.95816	27399.47569	27355.70239	23555.97935	27734.30841	23336.24913	28279.09815	24422.15494	27083.34159	21742.54378	23056.11788	27860.66914	28996.88359	28998.72019	25596.6412	23616.05294	23851.94496	24526.43359
120	150	28200.10822	33165.77186	40194.13915	37630.67234	35173.03089	34870.46094	38899.28516	34935.68115	39133.90993	33684.55691	34218.23767	40305.66983	38163.68475	38374.18143	39216.18601	37645.89007	40041.95505	36257.37575	39152.72281	29654.15599	36085.79631	41678.64587	40143.09297	39287.92866	40293.25711	36616.29349	35278.57073	35218.4283
150	180	34338.18074	31783.28208	45184.09908	40744.76084	39717.45602	39469.73387	41177.87982	42964.29476	44243.93018	35457.64264	37381.00685	41389.36642	42432.52799	41316.74168	43030.39769	40018.82841	44374.56173	39275.7256	42605.07536	34781.62665	40494.26969	44190.13884	37365.27422	37215.77817	41815.24771	36385.55778	39401.12528	37205.85339
180	240	28877.15194	34390.07696	40760.62484	37387.05333	39909.76095	35502.18506	39707.8553	38849.52465	42884.00996	35539.7244	38956.18857	40013.68494	37344.46668	40303.73116	39864.52742	39011.50792	41224.9057	38206.00184	40521.15191	34944.78754	37511.95791	43009.02656	39643.41406	38892.47286	39651.43793	34717.37372	38181.8796	34087.7333
240	300	28707.76678	30311.68434	43012.40519	37958.76674	37799.84499	37164.77396	38530.32333	42147.79362	42102.63884	36482.5448	37740.79324	37321.87833	39100.45034	37946.57275	41301.48188	37293.18101	42416.13547	38933.82288	40629.30995	36219.2087	39262.16812	41973.74185	36817.19453	35605.68565	37714.92717	33121.43498	38499.30218	39408.86221
300	360	28713.11734	28434.27639	37379.3475	36802.62763	34281.53953	36630.97716	35390.83529	38491.92417	40751.10216	35143.83041	35184.54542	35959.4137	34609.29634	38763.09717	38777.67567	37780.70941	38924.91079	37873.74487	37857.9321	37990.77647	39344.67003	41025.37031	35520.55508	35859.40337	36842.53296	30311.56352	41223.00335	34334.25668
360	480	26062.3758	28594.93684	35475.74364	33697.02581	32823.8489	34295.18577	32008.56554	38312.38477	36322.06816	32051.68993	31328.80536	31498.89487	31108.30987	36121.51317	35228.24074	34806.87521	35970.47549	35200.74667	34447.84439	34048.38958	34759.28477	32838.17573	30411.22305	31742.15584	33346.11504	29682.30208	35047.70354	33015.02438
480	600	21031.90345	24435.03956	29002.91913	28721.1176	29681.3587	29388.44549	27843.45208	32643.11854	30512.5513	27946.65757	26699.29127	26903.49725	26531.52012	30607.74033	28555.75597	30143.85758	29440.96725	30613.78078	28629.79475	30044.48937	29556.27315	31872.38929	30499.98477	31718.16314	29683.80533	26091.08761	28675.46359	28286.09999
600	900	20898.60762	20088.22627	23665.29606	23198.77763	24046.98077	25656.72275	22897.58361	26711.35045	24158.97157	22874.48893	20785.45297	22200.16835	21346.73991	24413.05671	22754.11049	23808.88443	23227.93737	24781.74253	22794.43211	26542.26454	26260.46561	24020.96055	24700.79492	24247.32679	23695.329	21141.38911	26174.6476	25400.16356
900	1200	14497.08348	16167.719	18687.01168	17412.68286	17618.02545	18046.14128	17720.77895	19941.64684	18369.97284	17522.85544	16508.80189	15821.04615	16514.3195	17586.78966	17358.1114	17554.37543	17711.8152	18449.52855	17412.33528	20410.2684	19034.54416	20582.25173	20248.12578	19828.6434	18621.3833	16661.03708	19417.24456	18667.62198
1200	1500	12886.04061	14233.90114	16573.88566	13882.73242	14370.05462	14629.81102	14490.81859	15718.22228	15175.80801	14025.51559	13687.94857	13255.26488	14814.67671	13749.2591	14460.87566	13843.40123	15008.63774	14312.99231	14518.2306	17251.03844	15926.56879	17184.08092	17797.75781	17051.09354	15339.36123	14010.71763	15333.03275	15957.28034
1500	1800	9591.4858	12931.60382	15794.08347	11887.24744	13587.76027	11155.8367	12686.79826	12846.97486	13032.44403	11745.39815	11828.44132	13323.03032	14381.9214	12139.32837	13407.67488	12095.68283	13852.22363	12039.85326	13070.56176	15203.65306	13192.90563	15715.22165	16706.91113	16420.44732	13321.59859	12452.07014	13783.58098	11414.88902
1800	2100	8554.05067	13005.02148	15307.25474	11057.08251	12184.505	10096.90446	11718.91792	12141.21211	12015.27023	11452.53245	11617.71201	11377.80423	14246.81629	11018.51448	13017.10564	11198.6797	13450.36126	11210.24885	12561.89385	13455.73689	12057.1921	13790.04964	14207.44707	13936.61477	12571.66555	12466.76504	12865.76667	10757.39119
2100	2400	9424.37161	11694.71453	13311.46099	10800.42487	11092.22768	10208.74286	11743.92136	10998.79187	11206.56499	10338.1549	10962.26391	12447.4719	12808.97801	9791.64891	12135.53219	9925.49517	12200.66063	10472.35052	11769.64989	12704.19063	10257.64956	13916.75198	13473.54531	13069.75977	10736.76312	10073.02292	10350.56253	10988.94341
2400	2700	7726.61631	9110.44303	12587.97895	9356.25393	10448.52896	8845.88127	10156.95702	9516.70888	10228.79728	8771.12224	10037.94648	9674.77324	11822.33027	8928.72885	10930.36624	9049.99178	11144.0412	8905.77245	10523.69345	10404.08282	9296.29432	11322.88923	11959.56973	11214.79122	9445.60334	8986.33223	10962.55479	7925.66617
2700	3000	7244.80278	9699.61996	11090.73558	8515.07733	9221.607	7693.29192	9155.75327	9122.89025	9014.12703	8876.32015	9744.88684	9492.04111	11088.62108	8718.61332	9831.87775	8954.66073	9891.93977	8646.90303	9580.31311	9845.2605	8507.3976	10118.4637	10431.76426	9463.70014	8399.16416	8573.62211	9710.09605	8282.79388
3000	3300	7334.52701	8748.9439	11042.07908	8814.23971	9716.23153	7877.68822	9238.6173	8609.87955	8827.90721	8623.34083	8573.64178	10284.66986	10167.33947	9556.10032	9370.03373	9293.81402	9565.4663	8714.90098	9255.34267	9890.87646	8714.39147	9445.21476	9948.41523	10113.91874	9033.7892	9077.98696	8912.49076	7598.06749
3300	3600	7539.37359	7775.39162	9772.63392	8049.28685	8885.97042	8672.29584	8042.84702	9331.11199	8079.97944	8419.40855	9109.50914	9236.74524	9645.71071	8434.96873	8830.74549	8404.27498	8713.92712	8661.03442	8552.5765	9961.9993	8164.65534	8554.05801	8533.32695	8687.33766	7308.43042	7016.13592	8911.84783	9549.05303
3600	3900	6179.29058	8108.17277	9121.46074	7210.30744	8295.68534	6995.88191	7042.89155	9360.70597	7582.97169	7606.16521	8966.5189	7753.62982	8732.98079	6959.81567	7875.42059	7200.26166	8117.98991	7713.57428	7854.29434	8330.02829	7693.32423	8010.51731	8043.49326	8521.34095	8517.95623	8098.22452	9753.75314	5798.83444
3900	4200	5487.22859	8097.73302	9143.67964	7112.54943	7524.60953	6318.86151	6995.57682	7632.44442	8188.94457	6912.01753	9032.98286	7585.25275	9628.83889	7514.9545	8361.10383	7457.04689	8344.03289	7107.18905	8288.78515	7278.14148	6743.02848	7638.21542	6678.04326	7249.57645	7510.50929	7381.27722	7626.05479	5756.19011
4200	4500	7202.06879	6569.39336	9748.98134	7503.00599	8001.85764	7789.79658	7176.50032	7712.21761	7778.6889	7538.50764	8807.09587	7201.04624	9966.56438	6937.26231	9537.01444	7025.95634	9148.53675	7388.57092	8789.68126	9069.13659	6637.71974	7441.77363	7409.00791	6666.88428	6411.7638	5979.136	6892.39835	6625.52745
4500	4800	5706.27737	7814.71219	6926.35162	5879.69528	6080.53096	6106.82088	5887.52123	6472.86976	5549.76587	6422.68204	6034.1815	7141.98123	6728.74418	5724.10415	5626.91619	5962.31097	6042.18658	6291.55052	5901.82354	6785.52082	5832.74797	7144.43408	7097.97393	7404.48682	6596.0533	6644.9278	6920.75776	5905.42315
4800	5100	6603.8546	6415.24496	7393.47376	6784.68522	6038.25344	6790.64742	6456.54711	6144.47594	6717.70511	6826.74506	7212.65975	6264.94992	6699.76982	6664.59212	7060.89286	6807.36006	7192.87623	6633.97419	6992.35101	7702.76694	5785.59847	7055.23228	6006.09434	5535.34254	6262.4421	5575.63061	7791.48629	4659.68088
5100	5400	7497.44665	4942.06846	7798.76056	6966.97054	6312.36604	8098.90375	6022.04606	7305.09891	7394.9016	7531.96786	7066.86074	5665.6371	7695.78135	5340.09737	7221.98464	5581.12163	7575.15897	7321.40263	7139.70949	6785.81334	6275.11199	5273.67245	5293.92656	4881.71538	5218.38327	4449.10163	6439.17557	8493.71064
